# Temperatura_=_24.25
# Concentracion g/m^3_=_13400.0
# C_Vs_to_Am_M_A/Vsm_=_65563218390.804596
# pendiente_HvsI_1/m_=_3716.3
# ordenada_HvsI_A/m_=_1297.0
# frecuencia_Hz_=_300839.50916040613

Tiempo_(s)	Campo_(V.s)	Magnetizacion_(V.s)	Campo_(kA/m)	Magnetizacion_(A/m)
0.000000e+00	-2.858698e-06	-5.145653e-09	-1.980337e+01	-3.376227e+02
1.000000e-08	-2.857656e-06	-5.144103e-09	-1.979614e+01	-3.376671e+02
2.000000e-08	-2.855634e-06	-5.143245e-09	-1.978214e+01	-3.376503e+02
3.000000e-08	-2.852345e-06	-5.144272e-09	-1.975935e+01	-3.375678e+02
4.000000e-08	-2.848023e-06	-5.144814e-09	-1.972941e+01	-3.374139e+02
5.000000e-08	-2.842925e-06	-5.139943e-09	-1.969410e+01	-3.371822e+02
6.000000e-08	-2.836935e-06	-5.132312e-09	-1.965260e+01	-3.368680e+02
7.000000e-08	-2.829975e-06	-5.118946e-09	-1.960439e+01	-3.364709e+02
8.000000e-08	-2.821962e-06	-5.132613e-09	-1.954888e+01	-3.359967e+02
9.000000e-08	-2.812717e-06	-5.143327e-09	-1.948483e+01	-3.354585e+02
1.000000e-07	-2.802058e-06	-5.134706e-09	-1.941100e+01	-3.348741e+02
1.100000e-07	-2.790193e-06	-5.037241e-09	-1.932880e+01	-3.342624e+02
1.200000e-07	-2.777589e-06	-5.052544e-09	-1.924149e+01	-3.336378e+02
1.300000e-07	-2.764110e-06	-5.137394e-09	-1.914811e+01	-3.330062e+02
1.400000e-07	-2.749592e-06	-5.090495e-09	-1.904754e+01	-3.323626e+02
1.500000e-07	-2.734179e-06	-5.004153e-09	-1.894077e+01	-3.316921e+02
1.600000e-07	-2.717411e-06	-5.060554e-09	-1.882461e+01	-3.309742e+02
1.700000e-07	-2.699247e-06	-5.141859e-09	-1.869878e+01	-3.301878e+02
1.800000e-07	-2.680448e-06	-4.997692e-09	-1.856855e+01	-3.293170e+02
1.900000e-07	-2.661005e-06	-5.000534e-09	-1.843386e+01	-3.283548e+02
2.000000e-07	-2.640570e-06	-5.073188e-09	-1.829231e+01	-3.273032e+02
2.100000e-07	-2.619315e-06	-4.945972e-09	-1.814506e+01	-3.261718e+02
2.200000e-07	-2.597314e-06	-4.936078e-09	-1.799265e+01	-3.249732e+02
2.300000e-07	-2.574339e-06	-5.035810e-09	-1.783349e+01	-3.237194e+02
2.400000e-07	-2.550386e-06	-4.934440e-09	-1.766756e+01	-3.224180e+02
2.500000e-07	-2.525675e-06	-4.887465e-09	-1.749638e+01	-3.210712e+02
2.600000e-07	-2.500161e-06	-4.923618e-09	-1.731963e+01	-3.196767e+02
2.700000e-07	-2.473556e-06	-4.872926e-09	-1.713533e+01	-3.182289e+02
2.800000e-07	-2.445851e-06	-4.826415e-09	-1.694341e+01	-3.167218e+02
2.900000e-07	-2.417210e-06	-4.811978e-09	-1.674500e+01	-3.151500e+02
3.000000e-07	-2.387695e-06	-4.788780e-09	-1.654053e+01	-3.135106e+02
3.100000e-07	-2.357476e-06	-4.789173e-09	-1.633120e+01	-3.118028e+02
3.200000e-07	-2.326573e-06	-4.787008e-09	-1.611712e+01	-3.100279e+02
3.300000e-07	-2.294778e-06	-4.693183e-09	-1.589686e+01	-3.081897e+02
3.400000e-07	-2.262273e-06	-4.689097e-09	-1.567168e+01	-3.062939e+02
3.500000e-07	-2.229226e-06	-4.675229e-09	-1.544276e+01	-3.043481e+02
3.600000e-07	-2.195402e-06	-4.608727e-09	-1.520845e+01	-3.023605e+02
3.700000e-07	-2.160387e-06	-4.609213e-09	-1.496588e+01	-3.003388e+02
3.800000e-07	-2.124276e-06	-4.585222e-09	-1.471572e+01	-2.982877e+02
3.900000e-07	-2.087598e-06	-4.530930e-09	-1.446164e+01	-2.962072e+02
4.000000e-07	-2.050290e-06	-4.520131e-09	-1.420319e+01	-2.940919e+02
4.100000e-07	-2.012220e-06	-4.488960e-09	-1.393946e+01	-2.919321e+02
4.200000e-07	-1.973506e-06	-4.414981e-09	-1.367128e+01	-2.897168e+02
4.300000e-07	-1.934043e-06	-4.405075e-09	-1.339790e+01	-2.874374e+02
4.400000e-07	-1.893876e-06	-4.382287e-09	-1.311965e+01	-2.850913e+02
4.500000e-07	-1.853290e-06	-4.335599e-09	-1.283849e+01	-2.826832e+02
4.600000e-07	-1.812356e-06	-4.294552e-09	-1.255493e+01	-2.802239e+02
4.700000e-07	-1.770675e-06	-4.261699e-09	-1.226618e+01	-2.777259e+02
4.800000e-07	-1.727928e-06	-4.216274e-09	-1.197006e+01	-2.751979e+02
4.900000e-07	-1.684216e-06	-4.170421e-09	-1.166725e+01	-2.726404e+02
5.000000e-07	-1.639845e-06	-4.137637e-09	-1.135987e+01	-2.700439e+02
5.100000e-07	-1.595083e-06	-4.092962e-09	-1.104979e+01	-2.673907e+02
5.200000e-07	-1.549886e-06	-4.060019e-09	-1.073669e+01	-2.646606e+02
5.300000e-07	-1.504168e-06	-4.019223e-09	-1.041998e+01	-2.618384e+02
5.400000e-07	-1.457894e-06	-3.976223e-09	-1.009943e+01	-2.589195e+02
5.500000e-07	-1.411060e-06	-3.922267e-09	-9.774986e+00	-2.559123e+02
5.600000e-07	-1.363664e-06	-3.874464e-09	-9.446652e+00	-2.528354e+02
5.700000e-07	-1.315748e-06	-3.824585e-09	-9.114719e+00	-2.497102e+02
5.800000e-07	-1.267459e-06	-3.778285e-09	-8.780204e+00	-2.465523e+02
5.900000e-07	-1.218883e-06	-3.734273e-09	-8.443695e+00	-2.433638e+02
6.000000e-07	-1.169953e-06	-3.682502e-09	-8.104739e+00	-2.401312e+02
6.100000e-07	-1.120544e-06	-3.635680e-09	-7.762463e+00	-2.368285e+02
6.200000e-07	-1.070461e-06	-3.579003e-09	-7.415518e+00	-2.334267e+02
6.300000e-07	-1.019709e-06	-3.525802e-09	-7.063939e+00	-2.299041e+02
6.400000e-07	-9.684167e-07	-3.466607e-09	-6.708616e+00	-2.262552e+02
6.500000e-07	-9.165609e-07	-3.408143e-09	-6.349390e+00	-2.224939e+02
6.600000e-07	-8.643088e-07	-3.348977e-09	-5.987419e+00	-2.186491e+02
6.700000e-07	-8.118336e-07	-3.291715e-09	-5.623901e+00	-2.147543e+02
6.800000e-07	-7.591357e-07	-3.233738e-09	-5.258842e+00	-2.108351e+02
6.900000e-07	-7.061859e-07	-3.171890e-09	-4.892037e+00	-2.068987e+02
7.000000e-07	-6.529676e-07	-3.113774e-09	-4.523372e+00	-2.029296e+02
7.100000e-07	-5.995287e-07	-3.051950e-09	-4.153179e+00	-1.988937e+02
7.200000e-07	-5.458551e-07	-2.988864e-09	-3.781360e+00	-1.947494e+02
7.300000e-07	-4.919093e-07	-2.917176e-09	-3.407656e+00	-1.904609e+02
7.400000e-07	-4.377837e-07	-2.844641e-09	-3.032706e+00	-1.860099e+02
7.500000e-07	-3.835350e-07	-2.773856e-09	-2.656903e+00	-1.814008e+02
7.600000e-07	-3.291934e-07	-2.705038e-09	-2.280457e+00	-1.766565e+02
7.700000e-07	-2.747697e-07	-2.630452e-09	-1.903441e+00	-1.718081e+02
7.800000e-07	-2.202753e-07	-2.552845e-09	-1.525937e+00	-1.668811e+02
7.900000e-07	-1.657385e-07	-2.480820e-09	-1.148138e+00	-1.618839e+02
8.000000e-07	-1.111767e-07	-2.403424e-09	-7.701662e-01	-1.568033e+02
8.100000e-07	-5.656445e-08	-2.320837e-09	-3.918450e-01	-1.516077e+02
8.200000e-07	-1.905476e-09	-2.233644e-09	-1.320001e-02	-1.462580e+02
8.300000e-07	5.274709e-08	-2.148813e-09	3.654006e-01	-1.407210e+02
8.400000e-07	1.073850e-07	-2.061351e-09	7.438996e-01	-1.349797e+02
8.500000e-07	1.619760e-07	-1.971028e-09	1.122074e+00	-1.290372e+02
8.600000e-07	2.165130e-07	-1.876217e-09	1.499874e+00	-1.229122e+02
8.700000e-07	2.709868e-07	-1.779894e-09	1.877236e+00	-1.166275e+02
8.800000e-07	3.253294e-07	-1.686057e-09	2.253689e+00	-1.101970e+02
8.900000e-07	3.795849e-07	-1.585869e-09	2.629539e+00	-1.036155e+02
9.000000e-07	4.337789e-07	-1.479772e-09	3.004963e+00	-9.685559e+01
9.100000e-07	4.878170e-07	-1.367423e-09	3.379307e+00	-8.987367e+01
9.200000e-07	5.416372e-07	-1.255758e-09	3.752141e+00	-8.262157e+01
9.300000e-07	5.951960e-07	-1.140416e-09	4.123165e+00	-7.506007e+01
9.400000e-07	6.485044e-07	-1.020118e-09	4.492454e+00	-6.716852e+01
9.500000e-07	7.015538e-07	-8.930871e-10	4.859948e+00	-5.894675e+01
9.600000e-07	7.543344e-07	-7.642874e-10	5.225582e+00	-5.040849e+01
9.700000e-07	8.069329e-07	-6.336244e-10	5.589952e+00	-4.156872e+01
9.800000e-07	8.593580e-07	-4.939301e-10	5.953122e+00	-3.243004e+01
9.900000e-07	9.114573e-07	-3.447982e-10	6.314035e+00	-2.297334e+01
1.000000e-06	9.631003e-07	-1.867889e-10	6.671787e+00	-1.315694e+01
1.010000e-06	1.014135e-06	-2.937630e-11	7.025326e+00	-2.924734e+00
1.020000e-06	1.064472e-06	1.323999e-10	7.374034e+00	7.778922e+00
1.030000e-06	1.114200e-06	3.037115e-10	7.718516e+00	1.899269e+01
1.040000e-06	1.163408e-06	4.855489e-10	8.059398e+00	3.072524e+01
1.050000e-06	1.212232e-06	6.705408e-10	8.397627e+00	4.294971e+01
1.060000e-06	1.260792e-06	8.588455e-10	8.734022e+00	5.560649e+01
1.070000e-06	1.309050e-06	1.057226e-09	9.068323e+00	6.861233e+01
1.080000e-06	1.356850e-06	1.261573e-09	9.399455e+00	8.187163e+01
1.090000e-06	1.404095e-06	1.465441e-09	9.726740e+00	9.528569e+01
1.100000e-06	1.450822e-06	1.666118e-09	1.005043e+01	1.087570e+02
1.110000e-06	1.497052e-06	1.870272e-09	1.037069e+01	1.221882e+02
1.120000e-06	1.542744e-06	2.073268e-09	1.068722e+01	1.354785e+02
1.130000e-06	1.587914e-06	2.271689e-09	1.100012e+01	1.485203e+02
1.140000e-06	1.632702e-06	2.462969e-09	1.131039e+01	1.612001e+02
1.150000e-06	1.677182e-06	2.647741e-09	1.161852e+01	1.734048e+02
1.160000e-06	1.721151e-06	2.825983e-09	1.192312e+01	1.850329e+02
1.170000e-06	1.764309e-06	2.992574e-09	1.222209e+01	1.960065e+02
1.180000e-06	1.806484e-06	3.146127e-09	1.251425e+01	2.062803e+02
1.190000e-06	1.847745e-06	3.290065e-09	1.280008e+01	2.158454e+02
1.200000e-06	1.888423e-06	3.427957e-09	1.308187e+01	2.247236e+02
1.210000e-06	1.928698e-06	3.554949e-09	1.336088e+01	2.329581e+02
1.220000e-06	1.968333e-06	3.668158e-09	1.363544e+01	2.405995e+02
1.230000e-06	2.007197e-06	3.770374e-09	1.390467e+01	2.476951e+02
1.240000e-06	2.045405e-06	3.868277e-09	1.416935e+01	2.542829e+02
1.250000e-06	2.082893e-06	3.960602e-09	1.442905e+01	2.603923e+02
1.260000e-06	2.119755e-06	4.047246e-09	1.468441e+01	2.660493e+02
1.270000e-06	2.156168e-06	4.127987e-09	1.493665e+01	2.712837e+02
1.280000e-06	2.191831e-06	4.203973e-09	1.518371e+01	2.761339e+02
1.290000e-06	2.226409e-06	4.274824e-09	1.542324e+01	2.806466e+02
1.300000e-06	2.259917e-06	4.337284e-09	1.565536e+01	2.848717e+02
1.310000e-06	2.292672e-06	4.392792e-09	1.588227e+01	2.888537e+02
1.320000e-06	2.324774e-06	4.444993e-09	1.610466e+01	2.926227e+02
1.330000e-06	2.356064e-06	4.497534e-09	1.632141e+01	2.961907e+02
1.340000e-06	2.386601e-06	4.548725e-09	1.653295e+01	2.995522e+02
1.350000e-06	2.416297e-06	4.595750e-09	1.673867e+01	3.026918e+02
1.360000e-06	2.445205e-06	4.637746e-09	1.693893e+01	3.055950e+02
1.370000e-06	2.473547e-06	4.676428e-09	1.713527e+01	3.082581e+02
1.380000e-06	2.500941e-06	4.712269e-09	1.732503e+01	3.106942e+02
1.390000e-06	2.527043e-06	4.744778e-09	1.750585e+01	3.129329e+02
1.400000e-06	2.552074e-06	4.773587e-09	1.767925e+01	3.150135e+02
1.410000e-06	2.576259e-06	4.800510e-09	1.784680e+01	3.169750e+02
1.420000e-06	2.599589e-06	4.829736e-09	1.800841e+01	3.188465e+02
1.430000e-06	2.622031e-06	4.859370e-09	1.816388e+01	3.206403e+02
1.440000e-06	2.643619e-06	4.885557e-09	1.831342e+01	3.223527e+02
1.450000e-06	2.664446e-06	4.907320e-09	1.845770e+01	3.239685e+02
1.460000e-06	2.684546e-06	4.926208e-09	1.859694e+01	3.254698e+02
1.470000e-06	2.703694e-06	4.945918e-09	1.872959e+01	3.268452e+02
1.480000e-06	2.721814e-06	4.967279e-09	1.885511e+01	3.280950e+02
1.490000e-06	2.739022e-06	4.987312e-09	1.897432e+01	3.292317e+02
1.500000e-06	2.755162e-06	5.003024e-09	1.908613e+01	3.302764e+02
1.510000e-06	2.770151e-06	5.016302e-09	1.918996e+01	3.312515e+02
1.520000e-06	2.784083e-06	5.030120e-09	1.928647e+01	3.321742e+02
1.530000e-06	2.797027e-06	5.043908e-09	1.937615e+01	3.330522e+02
1.540000e-06	2.808893e-06	5.054949e-09	1.945834e+01	3.338832e+02
1.550000e-06	2.819419e-06	5.064291e-09	1.953126e+01	3.346579e+02
1.560000e-06	2.828737e-06	5.076141e-09	1.959581e+01	3.353654e+02
1.570000e-06	2.837159e-06	5.090776e-09	1.965416e+01	3.359977e+02
1.580000e-06	2.844692e-06	5.103737e-09	1.970634e+01	3.365528e+02
1.590000e-06	2.851244e-06	5.111450e-09	1.975173e+01	3.370352e+02
1.600000e-06	2.856787e-06	5.116496e-09	1.979013e+01	3.374527e+02
1.610000e-06	2.861484e-06	5.121122e-09	1.982266e+01	3.378143e+02
1.620000e-06	2.865293e-06	5.126091e-09	1.984905e+01	3.381261e+02
1.630000e-06	2.867818e-06	5.132187e-09	1.986654e+01	3.383910e+02
1.640000e-06	2.869106e-06	5.136885e-09	1.987547e+01	3.386082e+02
1.650000e-06	2.869544e-06	5.141228e-09	1.987850e+01	3.387747e+02
1.660000e-06	2.869126e-06	5.145035e-09	1.987560e+01	3.388873e+02
1.670000e-06	2.867776e-06	5.145196e-09	1.986625e+01	3.389427e+02
1.680000e-06	2.865516e-06	5.145281e-09	1.985060e+01	3.389374e+02
1.690000e-06	2.862454e-06	5.146000e-09	1.982938e+01	3.388673e+02
1.700000e-06	2.858643e-06	5.144589e-09	1.980298e+01	3.387270e+02
1.710000e-06	2.853736e-06	5.139635e-09	1.976899e+01	3.385099e+02
1.720000e-06	2.847586e-06	5.132776e-09	1.972639e+01	3.382110e+02
1.730000e-06	2.840543e-06	5.142897e-09	1.967759e+01	3.378288e+02
1.740000e-06	2.832652e-06	5.104594e-09	1.962293e+01	3.373679e+02
1.750000e-06	2.823385e-06	5.075915e-09	1.955874e+01	3.368403e+02
1.760000e-06	2.812436e-06	5.103397e-09	1.948289e+01	3.362630e+02
1.770000e-06	2.800579e-06	5.155376e-09	1.940075e+01	3.356553e+02
1.780000e-06	2.788736e-06	5.121679e-09	1.931871e+01	3.350326e+02
1.790000e-06	2.776103e-06	4.985444e-09	1.923120e+01	3.344026e+02
1.800000e-06	2.761647e-06	5.075082e-09	1.913105e+01	3.337623e+02
1.810000e-06	2.746103e-06	5.126225e-09	1.902337e+01	3.330984e+02
1.820000e-06	2.730165e-06	5.014709e-09	1.891296e+01	3.323908e+02
1.830000e-06	2.713028e-06	5.033477e-09	1.879425e+01	3.316184e+02
1.840000e-06	2.694495e-06	5.131520e-09	1.866586e+01	3.307638e+02
1.850000e-06	2.675421e-06	5.048655e-09	1.853373e+01	3.298183e+02
1.860000e-06	2.655610e-06	4.957429e-09	1.839649e+01	3.287825e+02
1.870000e-06	2.634368e-06	5.088559e-09	1.824934e+01	3.276648e+02
1.880000e-06	2.612067e-06	5.031459e-09	1.809485e+01	3.264776e+02
1.890000e-06	2.588956e-06	4.874533e-09	1.793475e+01	3.252332e+02
1.900000e-06	2.564761e-06	4.982148e-09	1.776715e+01	3.239403e+02
1.910000e-06	2.539827e-06	4.969535e-09	1.759442e+01	3.226020e+02
1.920000e-06	2.514181e-06	4.864330e-09	1.741675e+01	3.212167e+02
1.930000e-06	2.487567e-06	4.929175e-09	1.723239e+01	3.197793e+02
1.940000e-06	2.460352e-06	4.887914e-09	1.704386e+01	3.182834e+02
1.950000e-06	2.432290e-06	4.844609e-09	1.684946e+01	3.167239e+02
1.960000e-06	2.402819e-06	4.847968e-09	1.664530e+01	3.150970e+02
1.970000e-06	2.372306e-06	4.758844e-09	1.643393e+01	3.134016e+02
1.980000e-06	2.341117e-06	4.755045e-09	1.621787e+01	3.116389e+02
1.990000e-06	2.309234e-06	4.791753e-09	1.599701e+01	3.098120e+02
2.000000e-06	2.276621e-06	4.689570e-09	1.577108e+01	3.079263e+02
2.010000e-06	2.243138e-06	4.688397e-09	1.553913e+01	3.059891e+02
2.020000e-06	2.208841e-06	4.697653e-09	1.530154e+01	3.040086e+02
2.030000e-06	2.173994e-06	4.585529e-09	1.506014e+01	3.019929e+02
2.040000e-06	2.138568e-06	4.590978e-09	1.481473e+01	2.999473e+02
2.050000e-06	2.102347e-06	4.574416e-09	1.456381e+01	2.978726e+02
2.060000e-06	2.065102e-06	4.495796e-09	1.430580e+01	2.957645e+02
2.070000e-06	2.026771e-06	4.509401e-09	1.404027e+01	2.936137e+02
2.080000e-06	1.987742e-06	4.477470e-09	1.376990e+01	2.914094e+02
2.090000e-06	1.948221e-06	4.412915e-09	1.349612e+01	2.891422e+02
2.100000e-06	1.908024e-06	4.398132e-09	1.321766e+01	2.868081e+02
2.110000e-06	1.867136e-06	4.341777e-09	1.293441e+01	2.844108e+02
2.120000e-06	1.825629e-06	4.304512e-09	1.264687e+01	2.819601e+02
2.130000e-06	1.783567e-06	4.281235e-09	1.235549e+01	2.794684e+02
2.140000e-06	1.740956e-06	4.236088e-09	1.206031e+01	2.769458e+02
2.150000e-06	1.697880e-06	4.210366e-09	1.176191e+01	2.743944e+02
2.160000e-06	1.654431e-06	4.154139e-09	1.146091e+01	2.718063e+02
2.170000e-06	1.610371e-06	4.112716e-09	1.115570e+01	2.691650e+02
2.180000e-06	1.565644e-06	4.075993e-09	1.084586e+01	2.664503e+02
2.190000e-06	1.520302e-06	4.027704e-09	1.053175e+01	2.636456e+02
2.200000e-06	1.474455e-06	3.992879e-09	1.021415e+01	2.607440e+02
2.210000e-06	1.428307e-06	3.943268e-09	9.894465e+00	2.577518e+02
2.220000e-06	1.381642e-06	3.899959e-09	9.571193e+00	2.546860e+02
2.230000e-06	1.334302e-06	3.856371e-09	9.243250e+00	2.515684e+02
2.240000e-06	1.286347e-06	3.794933e-09	8.911046e+00	2.484161e+02
2.250000e-06	1.237834e-06	3.749587e-09	8.574983e+00	2.452339e+02
2.260000e-06	1.188916e-06	3.707960e-09	8.236102e+00	2.420111e+02
2.270000e-06	1.139613e-06	3.654345e-09	7.894565e+00	2.387235e+02
2.280000e-06	1.089859e-06	3.608488e-09	7.549895e+00	2.353417e+02
2.290000e-06	1.039610e-06	3.550495e-09	7.201800e+00	2.318419e+02
2.300000e-06	9.889267e-07	3.495738e-09	6.850698e+00	2.282154e+02
2.310000e-06	9.379553e-07	3.439165e-09	6.497598e+00	2.244727e+02
2.320000e-06	8.867361e-07	3.375224e-09	6.142782e+00	2.206406e+02
2.330000e-06	8.352413e-07	3.321893e-09	5.786056e+00	2.167528e+02
2.340000e-06	7.833827e-07	3.262982e-09	5.426811e+00	2.128371e+02
2.350000e-06	7.309533e-07	3.205437e-09	5.063611e+00	2.089046e+02
2.360000e-06	6.780348e-07	3.143295e-09	4.697023e+00	2.049437e+02
2.370000e-06	6.247409e-07	3.080498e-09	4.327835e+00	2.009231e+02
2.380000e-06	5.710689e-07	3.021045e-09	3.956027e+00	1.968015e+02
2.390000e-06	5.170915e-07	2.956375e-09	3.582103e+00	1.925410e+02
2.400000e-06	4.627859e-07	2.892721e-09	3.205906e+00	1.881197e+02
2.410000e-06	4.083222e-07	2.826374e-09	2.828614e+00	1.835379e+02
2.420000e-06	3.537711e-07	2.754253e-09	2.450717e+00	1.788158e+02
2.430000e-06	2.990206e-07	2.679614e-09	2.071437e+00	1.739841e+02
2.440000e-06	2.441389e-07	2.602076e-09	1.691250e+00	1.690703e+02
2.450000e-06	1.892221e-07	2.527124e-09	1.310819e+00	1.640863e+02
2.460000e-06	1.342998e-07	2.454174e-09	9.303494e-01	1.590228e+02
2.470000e-06	7.936228e-08	2.373477e-09	5.497748e-01	1.538509e+02
2.480000e-06	2.438946e-08	2.293075e-09	1.689557e-01	1.485318e+02
2.490000e-06	-3.059807e-08	2.212694e-09	-2.119653e-01	1.430304e+02
2.500000e-06	-8.557309e-08	2.128265e-09	-5.927996e-01	1.373263e+02
2.510000e-06	-1.405172e-07	2.038672e-09	-9.734200e-01	1.314190e+02
2.520000e-06	-1.954111e-07	1.942365e-09	-1.353692e+00	1.253251e+02
2.530000e-06	-2.502874e-07	1.846834e-09	-1.733843e+00	1.190678e+02
2.540000e-06	-3.051365e-07	1.750622e-09	-2.113805e+00	1.126635e+02
2.550000e-06	-3.598860e-07	1.654348e-09	-2.493076e+00	1.061107e+02
2.560000e-06	-4.144816e-07	1.552353e-09	-2.871283e+00	9.938579e+01
2.570000e-06	-4.688872e-07	1.442850e-09	-3.248172e+00	9.244743e+01
2.580000e-06	-5.230410e-07	1.331747e-09	-3.623318e+00	8.524720e+01
2.590000e-06	-5.768736e-07	1.220133e-09	-3.996238e+00	7.774340e+01
2.600000e-06	-6.302973e-07	1.104265e-09	-4.366326e+00	6.991168e+01
2.610000e-06	-6.832858e-07	9.788079e-10	-4.733398e+00	6.174845e+01
2.620000e-06	-7.359162e-07	8.469412e-10	-5.097991e+00	5.326578e+01
2.630000e-06	-7.881649e-07	7.123065e-10	-5.459939e+00	4.447948e+01
2.640000e-06	-8.399657e-07	5.767927e-10	-5.818784e+00	3.539521e+01
2.650000e-06	-8.914130e-07	4.358251e-10	-6.175181e+00	2.599809e+01
2.660000e-06	-9.426108e-07	2.874344e-10	-6.529848e+00	1.625011e+01
2.670000e-06	-9.934903e-07	1.332253e-10	-6.882312e+00	6.096803e+00
2.680000e-06	-1.043996e-06	-2.547274e-11	-7.232185e+00	-4.518810e+00
2.690000e-06	-1.094124e-06	-1.941177e-10	-7.579440e+00	-1.563953e+01
2.700000e-06	-1.143819e-06	-3.747536e-10	-7.923698e+00	-2.728005e+01
2.710000e-06	-1.193041e-06	-5.609514e-10	-8.264680e+00	-3.941988e+01
2.720000e-06	-1.241798e-06	-7.509394e-10	-8.602439e+00	-5.200471e+01
2.730000e-06	-1.290020e-06	-9.462363e-10	-8.936492e+00	-6.495469e+01
2.740000e-06	-1.337448e-06	-1.150078e-09	-9.265044e+00	-7.817564e+01
2.750000e-06	-1.384019e-06	-1.359679e-09	-9.587662e+00	-9.156894e+01
2.760000e-06	-1.430038e-06	-1.568740e-09	-9.906457e+00	-1.050368e+02
2.770000e-06	-1.475657e-06	-1.773426e-09	-1.022247e+01	-1.184821e+02
2.780000e-06	-1.520932e-06	-1.977024e-09	-1.053612e+01	-1.318049e+02
2.790000e-06	-1.565872e-06	-2.179572e-09	-1.084744e+01	-1.448990e+02
2.800000e-06	-1.610347e-06	-2.375865e-09	-1.115553e+01	-1.576515e+02
2.810000e-06	-1.654224e-06	-2.561692e-09	-1.145948e+01	-1.699487e+02
2.820000e-06	-1.697559e-06	-2.738050e-09	-1.175968e+01	-1.816860e+02
2.830000e-06	-1.740530e-06	-2.910546e-09	-1.205736e+01	-1.927804e+02
2.840000e-06	-1.783071e-06	-3.074528e-09	-1.235206e+01	-2.031806e+02
2.850000e-06	-1.824977e-06	-3.224893e-09	-1.264236e+01	-2.128710e+02
2.860000e-06	-1.866272e-06	-3.361048e-09	-1.292842e+01	-2.218689e+02
2.870000e-06	-1.907017e-06	-3.487394e-09	-1.321068e+01	-2.302143e+02
2.880000e-06	-1.947046e-06	-3.609050e-09	-1.348798e+01	-2.379576e+02
2.890000e-06	-1.986402e-06	-3.723399e-09	-1.376061e+01	-2.451472e+02
2.900000e-06	-2.025253e-06	-3.825701e-09	-1.402975e+01	-2.518230e+02
2.910000e-06	-2.063372e-06	-3.918586e-09	-1.429382e+01	-2.580156e+02
2.920000e-06	-2.100531e-06	-4.007373e-09	-1.455123e+01	-2.637511e+02
2.930000e-06	-2.136702e-06	-4.089596e-09	-1.480180e+01	-2.690581e+02
2.940000e-06	-2.172026e-06	-4.164272e-09	-1.504651e+01	-2.739734e+02
