# Temperatura_=_22.86
# Concentracion g/m^3_=_13400.0
# C_Vs_to_Am_M_A/Vsm_=_65563218390.804596
# pendiente_HvsI_1/m_=_3716.3
# ordenada_HvsI_A/m_=_1297.0
# frecuencia_Hz_=_300840.6671590511

Tiempo_(s)	Campo_(V.s)	Magnetizacion_(V.s)	Campo_(kA/m)	Magnetizacion_(A/m)
0.000000e+00	-2.858452e-06	-5.135515e-09	-1.980407e+01	-3.364335e+02
1.000000e-08	-2.857927e-06	-5.133366e-09	-1.980043e+01	-3.364447e+02
2.000000e-08	-2.856585e-06	-5.129656e-09	-1.979113e+01	-3.364113e+02
3.000000e-08	-2.854172e-06	-5.126569e-09	-1.977442e+01	-3.363359e+02
4.000000e-08	-2.850527e-06	-5.124581e-09	-1.974916e+01	-3.362127e+02
5.000000e-08	-2.845971e-06	-5.122108e-09	-1.971760e+01	-3.360304e+02
6.000000e-08	-2.840670e-06	-5.119052e-09	-1.968088e+01	-3.357766e+02
7.000000e-08	-2.834436e-06	-5.117258e-09	-1.963768e+01	-3.354436e+02
8.000000e-08	-2.827155e-06	-5.115755e-09	-1.958724e+01	-3.350319e+02
9.000000e-08	-2.818779e-06	-5.113880e-09	-1.952921e+01	-3.345503e+02
1.000000e-07	-2.809057e-06	-5.103476e-09	-1.946185e+01	-3.340126e+02
1.100000e-07	-2.797932e-06	-5.082880e-09	-1.938477e+01	-3.334317e+02
1.200000e-07	-2.785872e-06	-5.059109e-09	-1.930122e+01	-3.328150e+02
1.300000e-07	-2.773093e-06	-5.062601e-09	-1.921268e+01	-3.321614e+02
1.400000e-07	-2.759347e-06	-5.062371e-09	-1.911745e+01	-3.314627e+02
1.500000e-07	-2.744599e-06	-5.047535e-09	-1.901527e+01	-3.307086e+02
1.600000e-07	-2.728736e-06	-5.033183e-09	-1.890537e+01	-3.298925e+02
1.700000e-07	-2.711471e-06	-5.052344e-09	-1.878575e+01	-3.290159e+02
1.800000e-07	-2.693114e-06	-5.043908e-09	-1.865857e+01	-3.280897e+02
1.900000e-07	-2.674128e-06	-4.986940e-09	-1.852703e+01	-3.271304e+02
2.000000e-07	-2.654369e-06	-4.988591e-09	-1.839013e+01	-3.261537e+02
2.100000e-07	-2.633640e-06	-4.969450e-09	-1.824652e+01	-3.251672e+02
2.200000e-07	-2.612122e-06	-4.923285e-09	-1.809744e+01	-3.241658e+02
2.300000e-07	-2.589818e-06	-4.943629e-09	-1.794291e+01	-3.231315e+02
2.400000e-07	-2.566505e-06	-4.958029e-09	-1.778139e+01	-3.220379e+02
2.500000e-07	-2.542298e-06	-4.902531e-09	-1.761368e+01	-3.208585e+02
2.600000e-07	-2.517360e-06	-4.882351e-09	-1.744090e+01	-3.195752e+02
2.700000e-07	-2.491526e-06	-4.881549e-09	-1.726191e+01	-3.181840e+02
2.800000e-07	-2.464579e-06	-4.832750e-09	-1.707522e+01	-3.166952e+02
2.900000e-07	-2.436530e-06	-4.798340e-09	-1.688089e+01	-3.151293e+02
3.000000e-07	-2.407551e-06	-4.802565e-09	-1.668012e+01	-3.135086e+02
3.100000e-07	-2.377871e-06	-4.772482e-09	-1.647448e+01	-3.118495e+02
3.200000e-07	-2.347516e-06	-4.751514e-09	-1.626418e+01	-3.101568e+02
3.300000e-07	-2.316365e-06	-4.752791e-09	-1.604835e+01	-3.084236e+02
3.400000e-07	-2.284444e-06	-4.694021e-09	-1.582720e+01	-3.066357e+02
3.500000e-07	-2.251876e-06	-4.650411e-09	-1.560156e+01	-3.047786e+02
3.600000e-07	-2.218711e-06	-4.648936e-09	-1.537179e+01	-3.028446e+02
3.700000e-07	-2.184596e-06	-4.619544e-09	-1.513543e+01	-3.008364e+02
3.800000e-07	-2.149276e-06	-4.570989e-09	-1.489072e+01	-2.987664e+02
3.900000e-07	-2.113057e-06	-4.557599e-09	-1.463979e+01	-2.966513e+02
4.000000e-07	-2.076211e-06	-4.534424e-09	-1.438451e+01	-2.945057e+02
4.100000e-07	-2.038703e-06	-4.483038e-09	-1.412465e+01	-2.923358e+02
4.200000e-07	-2.000459e-06	-4.442582e-09	-1.385968e+01	-2.901371e+02
4.300000e-07	-1.961508e-06	-4.407646e-09	-1.358982e+01	-2.878965e+02
4.400000e-07	-1.921841e-06	-4.375291e-09	-1.331499e+01	-2.855978e+02
4.500000e-07	-1.881544e-06	-4.345096e-09	-1.303581e+01	-2.832281e+02
4.600000e-07	-1.840846e-06	-4.309953e-09	-1.275384e+01	-2.807832e+02
4.700000e-07	-1.799683e-06	-4.268970e-09	-1.246866e+01	-2.782683e+02
4.800000e-07	-1.757694e-06	-4.232488e-09	-1.217774e+01	-2.756948e+02
4.900000e-07	-1.714651e-06	-4.184989e-09	-1.187953e+01	-2.730750e+02
5.000000e-07	-1.670719e-06	-4.139089e-09	-1.157516e+01	-2.704158e+02
5.100000e-07	-1.626242e-06	-4.100525e-09	-1.126701e+01	-2.677156e+02
5.200000e-07	-1.581354e-06	-4.057750e-09	-1.095602e+01	-2.649645e+02
5.300000e-07	-1.536017e-06	-4.024126e-09	-1.064191e+01	-2.621488e+02
5.400000e-07	-1.490152e-06	-3.989386e-09	-1.032414e+01	-2.592572e+02
5.500000e-07	-1.443711e-06	-3.932854e-09	-1.000239e+01	-2.562856e+02
5.600000e-07	-1.396731e-06	-3.875082e-09	-9.676901e+00	-2.532393e+02
5.700000e-07	-1.349275e-06	-3.835079e-09	-9.348116e+00	-2.501295e+02
5.800000e-07	-1.301364e-06	-3.785355e-09	-9.016176e+00	-2.469684e+02
5.900000e-07	-1.253012e-06	-3.734400e-09	-8.681180e+00	-2.437620e+02
6.000000e-07	-1.204292e-06	-3.692483e-09	-8.343639e+00	-2.405053e+02
6.100000e-07	-1.155211e-06	-3.643752e-09	-8.003590e+00	-2.371829e+02
6.200000e-07	-1.105572e-06	-3.587419e-09	-7.659677e+00	-2.337734e+02
6.300000e-07	-1.055171e-06	-3.532082e-09	-7.310491e+00	-2.302574e+02
6.400000e-07	-1.004123e-06	-3.474131e-09	-6.956812e+00	-2.266256e+02
6.500000e-07	-9.526356e-07	-3.411599e-09	-6.600098e+00	-2.228833e+02
6.600000e-07	-9.007388e-07	-3.354208e-09	-6.240544e+00	-2.190499e+02
6.700000e-07	-8.484864e-07	-3.298973e-09	-5.878526e+00	-2.151525e+02
6.800000e-07	-7.959663e-07	-3.242147e-09	-5.514653e+00	-2.112161e+02
6.900000e-07	-7.431858e-07	-3.178778e-09	-5.148978e+00	-2.072547e+02
7.000000e-07	-6.901216e-07	-3.115022e-09	-4.781335e+00	-2.032654e+02
7.100000e-07	-6.368230e-07	-3.054562e-09	-4.412069e+00	-1.992287e+02
7.200000e-07	-5.833101e-07	-2.991794e-09	-4.041318e+00	-1.951150e+02
7.300000e-07	-5.295829e-07	-2.923976e-09	-3.669083e+00	-1.908939e+02
7.400000e-07	-4.756587e-07	-2.853389e-09	-3.295482e+00	-1.865438e+02
7.500000e-07	-4.215268e-07	-2.782901e-09	-2.920443e+00	-1.820578e+02
7.600000e-07	-3.672440e-07	-2.712558e-09	-2.544358e+00	-1.774433e+02
7.700000e-07	-3.128734e-07	-2.642637e-09	-2.167665e+00	-1.727161e+02
7.800000e-07	-2.584510e-07	-2.568651e-09	-1.790613e+00	-1.678920e+02
7.900000e-07	-2.039906e-07	-2.492386e-09	-1.413298e+00	-1.629779e+02
8.000000e-07	-1.494935e-07	-2.416713e-09	-1.035728e+00	-1.579676e+02
8.100000e-07	-9.492961e-08	-2.338914e-09	-6.576961e-01	-1.528424e+02
8.200000e-07	-4.029335e-08	-2.255155e-09	-2.791624e-01	-1.475770e+02
8.300000e-07	1.431240e-08	-2.166704e-09	9.915991e-02	-1.421482e+02
8.400000e-07	6.887674e-08	-2.079216e-09	4.771953e-01	-1.365415e+02
8.500000e-07	1.234226e-07	-1.993933e-09	8.551025e-01	-1.307551e+02
8.600000e-07	1.779428e-07	-1.906264e-09	1.232832e+00	-1.247975e+02
8.700000e-07	2.324363e-07	-1.812309e-09	1.610377e+00	-1.186812e+02
8.800000e-07	2.868626e-07	-1.717137e-09	1.987456e+00	-1.124145e+02
8.900000e-07	3.412063e-07	-1.621705e-09	2.363963e+00	-1.059945e+02
9.000000e-07	3.954790e-07	-1.518713e-09	2.739977e+00	-9.940470e+01
9.100000e-07	4.496580e-07	-1.408845e-09	3.115344e+00	-9.261685e+01
9.200000e-07	5.036292e-07	-1.298735e-09	3.489269e+00	-8.559746e+01
9.300000e-07	5.573692e-07	-1.189855e-09	3.861593e+00	-7.831527e+01
9.400000e-07	6.109142e-07	-1.077172e-09	4.232567e+00	-7.074712e+01
9.500000e-07	6.642407e-07	-9.567659e-10	4.602026e+00	-6.287998e+01
9.600000e-07	7.173000e-07	-8.295740e-10	4.969634e+00	-5.470842e+01
9.700000e-07	7.700883e-07	-7.008076e-10	5.335364e+00	-4.622898e+01
9.800000e-07	8.226324e-07	-5.684427e-10	5.699403e+00	-3.743374e+01
9.900000e-07	8.749455e-07	-4.269149e-10	6.061842e+00	-2.830586e+01
1.000000e-06	9.269217e-07	-2.765448e-10	6.421946e+00	-1.881897e+01
1.010000e-06	9.784342e-07	-1.208678e-10	6.778837e+00	-8.940622e+00
1.020000e-06	1.029388e-06	3.712254e-11	7.131857e+00	1.361329e+00
1.030000e-06	1.079682e-06	1.992430e-10	7.480309e+00	1.211143e+01
1.040000e-06	1.129332e-06	3.703196e-10	7.824292e+00	2.332065e+01
1.050000e-06	1.178400e-06	5.519441e-10	8.164250e+00	3.498283e+01
1.060000e-06	1.227051e-06	7.382889e-10	8.501316e+00	4.707380e+01
1.070000e-06	1.275484e-06	9.268874e-10	8.836870e+00	5.955212e+01
1.080000e-06	1.323586e-06	1.120264e-09	9.170133e+00	7.236021e+01
1.090000e-06	1.371232e-06	1.320294e-09	9.500236e+00	8.542501e+01
1.100000e-06	1.418398e-06	1.523661e-09	9.827014e+00	9.865818e+01
1.110000e-06	1.465032e-06	1.725213e-09	1.015011e+01	1.119567e+02
1.120000e-06	1.511133e-06	1.923673e-09	1.046951e+01	1.252054e+02
1.130000e-06	1.556648e-06	2.117272e-09	1.078485e+01	1.382817e+02
1.140000e-06	1.601632e-06	2.310036e-09	1.109651e+01	1.510638e+02
1.150000e-06	1.646230e-06	2.501610e-09	1.140549e+01	1.634396e+02
1.160000e-06	1.690496e-06	2.684250e-09	1.171218e+01	1.753156e+02
1.170000e-06	1.734227e-06	2.855688e-09	1.201516e+01	1.866222e+02
1.180000e-06	1.777059e-06	3.018752e-09	1.231191e+01	1.973156e+02
1.190000e-06	1.818871e-06	3.173916e-09	1.260160e+01	2.073744e+02
1.200000e-06	1.859887e-06	3.318843e-09	1.288576e+01	2.167939e+02
1.210000e-06	1.900397e-06	3.452085e-09	1.316642e+01	2.255803e+02
1.220000e-06	1.940433e-06	3.574173e-09	1.344380e+01	2.337460e+02
1.230000e-06	1.979819e-06	3.686201e-09	1.371668e+01	2.413087e+02
1.240000e-06	2.018489e-06	3.790575e-09	1.398460e+01	2.482936e+02
1.250000e-06	2.056480e-06	3.888722e-09	1.424781e+01	2.547357e+02
1.260000e-06	2.093765e-06	3.978625e-09	1.450613e+01	2.606824e+02
1.270000e-06	2.130458e-06	4.063554e-09	1.476035e+01	2.661909e+02
1.280000e-06	2.166582e-06	4.145780e-09	1.501062e+01	2.713234e+02
1.290000e-06	2.201842e-06	4.220252e-09	1.525491e+01	2.761378e+02
1.300000e-06	2.236052e-06	4.284067e-09	1.549193e+01	2.806791e+02
1.310000e-06	2.269289e-06	4.345457e-09	1.572220e+01	2.849736e+02
1.320000e-06	2.301782e-06	4.407811e-09	1.594732e+01	2.890278e+02
1.330000e-06	2.333581e-06	4.465262e-09	1.616763e+01	2.928337e+02
1.340000e-06	2.364614e-06	4.516070e-09	1.638264e+01	2.963781e+02
1.350000e-06	2.394862e-06	4.563297e-09	1.659221e+01	2.996529e+02
1.360000e-06	2.424329e-06	4.609199e-09	1.679635e+01	3.026629e+02
1.370000e-06	2.453109e-06	4.651431e-09	1.699576e+01	3.054284e+02
1.380000e-06	2.481177e-06	4.687523e-09	1.719022e+01	3.079824e+02
1.390000e-06	2.508199e-06	4.720374e-09	1.737743e+01	3.103622e+02
1.400000e-06	2.534012e-06	4.753710e-09	1.755627e+01	3.126006e+02
1.410000e-06	2.558819e-06	4.787084e-09	1.772814e+01	3.147189e+02
1.420000e-06	2.582736e-06	4.818509e-09	1.789384e+01	3.167246e+02
1.430000e-06	2.605805e-06	4.846768e-09	1.805367e+01	3.186140e+02
1.440000e-06	2.628009e-06	4.872170e-09	1.820750e+01	3.203792e+02
1.450000e-06	2.649345e-06	4.894533e-09	1.835533e+01	3.220153e+02
1.460000e-06	2.669968e-06	4.914881e-09	1.849821e+01	3.235260e+02
1.470000e-06	2.689823e-06	4.935678e-09	1.863577e+01	3.249241e+02
1.480000e-06	2.708669e-06	4.956761e-09	1.876634e+01	3.262287e+02
1.490000e-06	2.726505e-06	4.976243e-09	1.888991e+01	3.274581e+02
1.500000e-06	2.743422e-06	4.995535e-09	1.900712e+01	3.286241e+02
1.510000e-06	2.759253e-06	5.014927e-09	1.911680e+01	3.297282e+02
1.520000e-06	2.773945e-06	5.030853e-09	1.921858e+01	3.307624e+02
1.530000e-06	2.787619e-06	5.041964e-09	1.931332e+01	3.317138e+02
1.540000e-06	2.800280e-06	5.051234e-09	1.940104e+01	3.325714e+02
1.550000e-06	2.811798e-06	5.061970e-09	1.948084e+01	3.333315e+02
1.560000e-06	2.822034e-06	5.072375e-09	1.955176e+01	3.340004e+02
1.570000e-06	2.831095e-06	5.081454e-09	1.961454e+01	3.345929e+02
1.580000e-06	2.839207e-06	5.092487e-09	1.967074e+01	3.351264e+02
1.590000e-06	2.846397e-06	5.104384e-09	1.972055e+01	3.356155e+02
1.600000e-06	2.852569e-06	5.113481e-09	1.976331e+01	3.360665e+02
1.610000e-06	2.857831e-06	5.117958e-09	1.979977e+01	3.364757e+02
1.620000e-06	2.862316e-06	5.119026e-09	1.983084e+01	3.368328e+02
1.630000e-06	2.865799e-06	5.121100e-09	1.985497e+01	3.371252e+02
1.640000e-06	2.867996e-06	5.126743e-09	1.987020e+01	3.373445e+02
1.650000e-06	2.869049e-06	5.132718e-09	1.987749e+01	3.374898e+02
1.660000e-06	2.869195e-06	5.134089e-09	1.987850e+01	3.375678e+02
1.670000e-06	2.868449e-06	5.132857e-09	1.987333e+01	3.375898e+02
1.680000e-06	2.866839e-06	5.132775e-09	1.986218e+01	3.375656e+02
1.690000e-06	2.864384e-06	5.134790e-09	1.984517e+01	3.374995e+02
1.700000e-06	2.861135e-06	5.136411e-09	1.982266e+01	3.373875e+02
1.710000e-06	2.857069e-06	5.133465e-09	1.979449e+01	3.372192e+02
1.720000e-06	2.851885e-06	5.125435e-09	1.975858e+01	3.369817e+02
1.730000e-06	2.845514e-06	5.116384e-09	1.971443e+01	3.366661e+02
1.740000e-06	2.838227e-06	5.110797e-09	1.966395e+01	3.362709e+02
1.750000e-06	2.829954e-06	5.099245e-09	1.960663e+01	3.358034e+02
1.760000e-06	2.820203e-06	5.089200e-09	1.953907e+01	3.352767e+02
1.770000e-06	2.808966e-06	5.090312e-09	1.946122e+01	3.347044e+02
1.780000e-06	2.797142e-06	5.102519e-09	1.937930e+01	3.340953e+02
1.790000e-06	2.785108e-06	5.081520e-09	1.929593e+01	3.334502e+02
1.800000e-06	2.771904e-06	5.040251e-09	1.920444e+01	3.327622e+02
1.810000e-06	2.757039e-06	5.042616e-09	1.910146e+01	3.320209e+02
1.820000e-06	2.741337e-06	5.047519e-09	1.899267e+01	3.312185e+02
1.830000e-06	2.725006e-06	5.021052e-09	1.887952e+01	3.303544e+02
1.840000e-06	2.707381e-06	5.012513e-09	1.875741e+01	3.294377e+02
1.850000e-06	2.688613e-06	5.037992e-09	1.862739e+01	3.284842e+02
1.860000e-06	2.669250e-06	5.008484e-09	1.849323e+01	3.275103e+02
1.870000e-06	2.648969e-06	4.973451e-09	1.835272e+01	3.265261e+02
1.880000e-06	2.627388e-06	4.998220e-09	1.820320e+01	3.255292e+02
1.890000e-06	2.604881e-06	4.957658e-09	1.804727e+01	3.245042e+02
1.900000e-06	2.581442e-06	4.902153e-09	1.788488e+01	3.234258e+02
1.910000e-06	2.556984e-06	4.935111e-09	1.771543e+01	3.222668e+02
1.920000e-06	2.531844e-06	4.918078e-09	1.754125e+01	3.210068e+02
1.930000e-06	2.505908e-06	4.868671e-09	1.736156e+01	3.196385e+02
1.940000e-06	2.479064e-06	4.881166e-09	1.717558e+01	3.181693e+02
1.950000e-06	2.451537e-06	4.859888e-09	1.698486e+01	3.166181e+02
1.960000e-06	2.423067e-06	4.797911e-09	1.678762e+01	3.150076e+02
1.970000e-06	2.393322e-06	4.782350e-09	1.658153e+01	3.133560e+02
1.980000e-06	2.362644e-06	4.761740e-09	1.636899e+01	3.116709e+02
1.990000e-06	2.331276e-06	4.720364e-09	1.615166e+01	3.099476e+02
2.000000e-06	2.299159e-06	4.719944e-09	1.592915e+01	3.081729e+02
2.010000e-06	2.266266e-06	4.695164e-09	1.570126e+01	3.063318e+02
2.020000e-06	2.232569e-06	4.643400e-09	1.546780e+01	3.044146e+02
2.030000e-06	2.198180e-06	4.622005e-09	1.522954e+01	3.024217e+02
2.040000e-06	2.163163e-06	4.593588e-09	1.498693e+01	3.003637e+02
2.050000e-06	2.127405e-06	4.536518e-09	1.473919e+01	2.982570e+02
2.060000e-06	2.090869e-06	4.498391e-09	1.448606e+01	2.961172e+02
2.070000e-06	2.053346e-06	4.486881e-09	1.422610e+01	2.939527e+02
2.080000e-06	2.014788e-06	4.460311e-09	1.395896e+01	2.917612e+02
2.090000e-06	1.975553e-06	4.419034e-09	1.368713e+01	2.895311e+02
2.100000e-06	1.935758e-06	4.384518e-09	1.341142e+01	2.872463e+02
2.110000e-06	1.895344e-06	4.348598e-09	1.313142e+01	2.848927e+02
2.120000e-06	1.854269e-06	4.304890e-09	1.284684e+01	2.824640e+02
2.130000e-06	1.812572e-06	4.262939e-09	1.255796e+01	2.799633e+02
2.140000e-06	1.770327e-06	4.227065e-09	1.226527e+01	2.774014e+02
2.150000e-06	1.727539e-06	4.197496e-09	1.196883e+01	2.747909e+02
2.160000e-06	1.684305e-06	4.153512e-09	1.166929e+01	2.721402e+02
2.170000e-06	1.640597e-06	4.104246e-09	1.136647e+01	2.694495e+02
2.180000e-06	1.596274e-06	4.070164e-09	1.105938e+01	2.667105e+02
2.190000e-06	1.551357e-06	4.022001e-09	1.074819e+01	2.639100e+02
2.200000e-06	1.505874e-06	3.975580e-09	1.043307e+01	2.610354e+02
2.210000e-06	1.459939e-06	3.941015e-09	1.011482e+01	2.580811e+02
2.220000e-06	1.413517e-06	3.889470e-09	9.793196e+00	2.550501e+02
2.230000e-06	1.366561e-06	3.836240e-09	9.467875e+00	2.519529e+02
2.240000e-06	1.319141e-06	3.794500e-09	9.139341e+00	2.488022e+02
2.250000e-06	1.271077e-06	3.742935e-09	8.806337e+00	2.456057e+02
2.260000e-06	1.222401e-06	3.689772e-09	8.469099e+00	2.423608e+02
2.270000e-06	1.173317e-06	3.644771e-09	8.129036e+00	2.390544e+02
2.280000e-06	1.123848e-06	3.595064e-09	7.786299e+00	2.356656e+02
2.290000e-06	1.073932e-06	3.542393e-09	7.440467e+00	2.321738e+02
2.300000e-06	1.023561e-06	3.487745e-09	7.091487e+00	2.285671e+02
2.310000e-06	9.727562e-07	3.431776e-09	6.739499e+00	2.248474e+02
2.320000e-06	9.216489e-07	3.369742e-09	6.385414e+00	2.210316e+02
2.330000e-06	8.703492e-07	3.307807e-09	6.029997e+00	2.171456e+02
2.340000e-06	8.187544e-07	3.254121e-09	5.672536e+00	2.132161e+02
2.350000e-06	7.667595e-07	3.199678e-09	5.312302e+00	2.092598e+02
2.360000e-06	7.143676e-07	3.137340e-09	4.949318e+00	2.052778e+02
2.370000e-06	6.615756e-07	3.072115e-09	4.583562e+00	2.012538e+02
2.380000e-06	6.083119e-07	3.012386e-09	4.214537e+00	1.971594e+02
2.390000e-06	5.546266e-07	2.952401e-09	3.842592e+00	1.929637e+02
2.400000e-06	5.005876e-07	2.886089e-09	3.468196e+00	1.886425e+02
2.410000e-06	4.462499e-07	2.817848e-09	3.091731e+00	1.841856e+02
2.420000e-06	3.917148e-07	2.750799e-09	2.713898e+00	1.795976e+02
2.430000e-06	3.370573e-07	2.681690e-09	2.335217e+00	1.748933e+02
2.440000e-06	2.822893e-07	2.608586e-09	1.955771e+00	1.700891e+02
2.450000e-06	2.274349e-07	2.532440e-09	1.575726e+00	1.651945e+02
2.460000e-06	1.725387e-07	2.457519e-09	1.195391e+00	1.602062e+02
2.470000e-06	1.175718e-07	2.383359e-09	8.145666e-01	1.551078e+02
2.480000e-06	6.256828e-08	2.304399e-09	4.334887e-01	1.498748e+02
2.490000e-06	7.568827e-09	2.220585e-09	5.243872e-02	1.444827e+02
2.500000e-06	-4.741041e-08	2.135449e-09	-3.284712e-01	1.389149e+02
2.510000e-06	-1.023547e-07	2.050534e-09	-7.091388e-01	1.331667e+02
2.520000e-06	-1.573182e-07	1.963424e-09	-1.089940e+00	1.272449e+02
2.530000e-06	-2.122689e-07	1.871044e-09	-1.470652e+00	1.211618e+02
2.540000e-06	-2.671903e-07	1.773897e-09	-1.851162e+00	1.149273e+02
2.550000e-06	-3.220241e-07	1.675974e-09	-2.231064e+00	1.085412e+02
2.560000e-06	-3.766700e-07	1.578973e-09	-2.609664e+00	1.019900e+02
2.570000e-06	-4.311188e-07	1.476598e-09	-2.986899e+00	9.524754e+01
2.580000e-06	-4.853575e-07	1.368653e-09	-3.362678e+00	8.828074e+01
2.590000e-06	-5.393620e-07	1.259013e-09	-3.736835e+00	8.105731e+01
2.600000e-06	-5.930663e-07	1.148286e-09	-4.108912e+00	7.355203e+01
2.610000e-06	-6.463189e-07	1.033205e-09	-4.477859e+00	6.574977e+01
2.620000e-06	-6.991029e-07	9.088005e-10	-4.843560e+00	5.764386e+01
2.630000e-06	-7.515396e-07	7.785751e-10	-5.206855e+00	4.923098e+01
2.640000e-06	-8.035438e-07	6.473895e-10	-5.567152e+00	4.050464e+01
2.650000e-06	-8.551724e-07	5.131408e-10	-5.924848e+00	3.145012e+01
2.660000e-06	-9.065637e-07	3.699738e-10	-6.280900e+00	2.204294e+01
2.670000e-06	-9.576712e-07	2.192922e-10	-6.634985e+00	1.225146e+01
2.680000e-06	-1.008485e-06	6.506188e-11	-6.987036e+00	2.042869e+00
2.690000e-06	-1.059001e-06	-9.390938e-11	-7.337021e+00	-8.609584e+00
2.700000e-06	-1.109028e-06	-2.620324e-10	-7.683622e+00	-1.972016e+01
2.710000e-06	-1.158511e-06	-4.380993e-10	-8.026453e+00	-3.128654e+01
2.720000e-06	-1.207553e-06	-6.192238e-10	-8.366228e+00	-4.328839e+01
2.730000e-06	-1.256094e-06	-8.062867e-10	-8.702533e+00	-5.568787e+01
2.740000e-06	-1.304013e-06	-1.000834e-09	-9.034529e+00	-6.843076e+01
2.750000e-06	-1.351134e-06	-1.202515e-09	-9.360995e+00	-8.144730e+01
2.760000e-06	-1.397523e-06	-1.407738e-09	-9.682392e+00	-9.465242e+01
2.770000e-06	-1.443432e-06	-1.613874e-09	-1.000046e+01	-1.079462e+02
2.780000e-06	-1.489008e-06	-1.818926e-09	-1.031622e+01	-1.212155e+02
2.790000e-06	-1.534269e-06	-2.020746e-09	-1.062980e+01	-1.343390e+02
2.800000e-06	-1.579105e-06	-2.216402e-09	-1.094044e+01	-1.471939e+02
2.810000e-06	-1.623344e-06	-2.405315e-09	-1.124694e+01	-1.596652e+02
2.820000e-06	-1.667018e-06	-2.589365e-09	-1.154952e+01	-1.716548e+02
2.830000e-06	-1.710278e-06	-2.766590e-09	-1.184923e+01	-1.830879e+02
2.840000e-06	-1.753107e-06	-2.932420e-09	-1.214596e+01	-1.939150e+02
2.850000e-06	-1.795413e-06	-3.087163e-09	-1.243907e+01	-2.041105e+02
2.860000e-06	-1.837151e-06	-3.235270e-09	-1.272824e+01	-2.136666e+02
2.870000e-06	-1.878277e-06	-3.375062e-09	-1.301317e+01	-2.225876e+02
2.880000e-06	-1.918730e-06	-3.501835e-09	-1.329344e+01	-2.308849e+02
2.890000e-06	-1.958517e-06	-3.617346e-09	-1.356910e+01	-2.385749e+02
2.900000e-06	-1.997753e-06	-3.726778e-09	-1.384093e+01	-2.456808e+02
2.910000e-06	-2.036393e-06	-3.829933e-09	-1.410864e+01	-2.522355e+02
2.920000e-06	-2.074139e-06	-3.923999e-09	-1.437016e+01	-2.582836e+02
2.930000e-06	-2.110844e-06	-4.009445e-09	-1.462446e+01	-2.638807e+02
2.940000e-06	-2.146662e-06	-4.089386e-09	-1.487261e+01	-2.690885e+02
