# Temperatura_=_19.12
# Concentracion g/m^3_=_13400.0
# C_Vs_to_Am_M_A/Vsm_=_65563218390.804596
# pendiente_HvsI_1/m_=_3716.3
# ordenada_HvsI_A/m_=_1297.0
# frecuencia_Hz_=_300843.5177261618

Tiempo_(s)	Campo_(V.s)	Magnetizacion_(V.s)	Campo_(kA/m)	Magnetizacion_(A/m)
0.000000e+00	-2.860350e-06	-5.011291e-09	-1.980489e+01	-3.270617e+02
1.000000e-08	-2.859976e-06	-5.007687e-09	-1.980230e+01	-3.271097e+02
2.000000e-08	-2.858803e-06	-4.995886e-09	-1.979418e+01	-3.271099e+02
3.000000e-08	-2.856589e-06	-4.988881e-09	-1.977885e+01	-3.270607e+02
4.000000e-08	-2.853161e-06	-4.988803e-09	-1.975512e+01	-3.269538e+02
5.000000e-08	-2.848734e-06	-4.991488e-09	-1.972446e+01	-3.267772e+02
6.000000e-08	-2.843520e-06	-4.992825e-09	-1.968836e+01	-3.265199e+02
7.000000e-08	-2.837414e-06	-5.004308e-09	-1.964608e+01	-3.261772e+02
8.000000e-08	-2.830294e-06	-5.002663e-09	-1.959679e+01	-3.257540e+02
9.000000e-08	-2.822082e-06	-4.943186e-09	-1.953992e+01	-3.252647e+02
1.000000e-07	-2.812603e-06	-4.894702e-09	-1.947429e+01	-3.247294e+02
1.100000e-07	-2.801774e-06	-4.977480e-09	-1.939932e+01	-3.241672e+02
1.200000e-07	-2.789804e-06	-5.043348e-09	-1.931643e+01	-3.235898e+02
1.300000e-07	-2.777000e-06	-4.904475e-09	-1.922778e+01	-3.229978e+02
1.400000e-07	-2.763352e-06	-4.797500e-09	-1.913328e+01	-3.223803e+02
1.500000e-07	-2.748685e-06	-5.006010e-09	-1.903173e+01	-3.217201e+02
1.600000e-07	-2.732941e-06	-4.988322e-09	-1.892271e+01	-3.209997e+02
1.700000e-07	-2.715965e-06	-4.779146e-09	-1.880518e+01	-3.202083e+02
1.800000e-07	-2.697791e-06	-4.908284e-09	-1.867934e+01	-3.193449e+02
1.900000e-07	-2.678891e-06	-4.980106e-09	-1.854848e+01	-3.184178e+02
2.000000e-07	-2.659358e-06	-4.776194e-09	-1.841323e+01	-3.174398e+02
2.100000e-07	-2.638892e-06	-4.799298e-09	-1.827153e+01	-3.164218e+02
2.200000e-07	-2.617553e-06	-4.943010e-09	-1.812378e+01	-3.153675e+02
2.300000e-07	-2.595414e-06	-4.757375e-09	-1.797049e+01	-3.142711e+02
2.400000e-07	-2.572322e-06	-4.723268e-09	-1.781060e+01	-3.131197e+02
2.500000e-07	-2.548269e-06	-4.866859e-09	-1.764406e+01	-3.118983e+02
2.600000e-07	-2.523450e-06	-4.752822e-09	-1.747222e+01	-3.105967e+02
2.700000e-07	-2.497807e-06	-4.670127e-09	-1.729466e+01	-3.092133e+02
2.800000e-07	-2.471078e-06	-4.754812e-09	-1.710959e+01	-3.077562e+02
2.900000e-07	-2.443265e-06	-4.672091e-09	-1.691702e+01	-3.062392e+02
3.000000e-07	-2.414552e-06	-4.641485e-09	-1.671821e+01	-3.046760e+02
3.100000e-07	-2.384994e-06	-4.670702e-09	-1.651355e+01	-3.030735e+02
3.200000e-07	-2.354658e-06	-4.593404e-09	-1.630351e+01	-3.014293e+02
3.300000e-07	-2.323576e-06	-4.596306e-09	-1.608830e+01	-2.997320e+02
3.400000e-07	-2.291695e-06	-4.599879e-09	-1.586756e+01	-2.979665e+02
3.500000e-07	-2.259155e-06	-4.518315e-09	-1.564225e+01	-2.961213e+02
3.600000e-07	-2.225998e-06	-4.496692e-09	-1.541267e+01	-2.941932e+02
3.700000e-07	-2.192003e-06	-4.501179e-09	-1.517730e+01	-2.921905e+02
3.800000e-07	-2.156914e-06	-4.430631e-09	-1.493434e+01	-2.901291e+02
3.900000e-07	-2.120800e-06	-4.426208e-09	-1.468429e+01	-2.880271e+02
4.000000e-07	-2.084019e-06	-4.409490e-09	-1.442962e+01	-2.858968e+02
4.100000e-07	-2.046652e-06	-4.342751e-09	-1.417089e+01	-2.837396e+02
4.200000e-07	-2.008543e-06	-4.309585e-09	-1.390703e+01	-2.815459e+02
4.300000e-07	-1.969658e-06	-4.288902e-09	-1.363779e+01	-2.792990e+02
4.400000e-07	-1.930064e-06	-4.242107e-09	-1.336364e+01	-2.769825e+02
4.500000e-07	-1.889864e-06	-4.200954e-09	-1.308530e+01	-2.745883e+02
4.600000e-07	-1.849178e-06	-4.179383e-09	-1.280360e+01	-2.721203e+02
4.700000e-07	-1.808019e-06	-4.141184e-09	-1.251862e+01	-2.695933e+02
4.800000e-07	-1.766118e-06	-4.105410e-09	-1.222850e+01	-2.670268e+02
4.900000e-07	-1.723179e-06	-4.050348e-09	-1.193119e+01	-2.644365e+02
5.000000e-07	-1.679325e-06	-3.996099e-09	-1.162754e+01	-2.618264e+02
5.100000e-07	-1.634884e-06	-3.964225e-09	-1.131984e+01	-2.591865e+02
5.200000e-07	-1.589997e-06	-3.942047e-09	-1.100904e+01	-2.564953e+02
5.300000e-07	-1.544658e-06	-3.892424e-09	-1.069512e+01	-2.537284e+02
5.400000e-07	-1.498836e-06	-3.847857e-09	-1.037785e+01	-2.508681e+02
5.500000e-07	-1.452493e-06	-3.807865e-09	-1.005697e+01	-2.479113e+02
5.600000e-07	-1.405615e-06	-3.744583e-09	-9.732394e+00	-2.448707e+02
5.700000e-07	-1.358184e-06	-3.696319e-09	-9.403983e+00	-2.417701e+02
5.800000e-07	-1.310260e-06	-3.650583e-09	-9.072158e+00	-2.386337e+02
5.900000e-07	-1.261976e-06	-3.604495e-09	-8.737845e+00	-2.354753e+02
6.000000e-07	-1.213303e-06	-3.562997e-09	-8.400836e+00	-2.322910e+02
6.100000e-07	-1.164183e-06	-3.521031e-09	-8.060733e+00	-2.290582e+02
6.200000e-07	-1.114601e-06	-3.460407e-09	-7.717429e+00	-2.257430e+02
6.300000e-07	-1.064328e-06	-3.398591e-09	-7.369345e+00	-2.223129e+02
6.400000e-07	-1.013369e-06	-3.345277e-09	-7.016503e+00	-2.187490e+02
6.500000e-07	-9.619420e-07	-3.288833e-09	-6.660428e+00	-2.150541e+02
6.600000e-07	-9.100859e-07	-3.231520e-09	-6.301380e+00	-2.112528e+02
6.700000e-07	-8.578245e-07	-3.172782e-09	-5.939525e+00	-2.073826e+02
6.800000e-07	-8.052634e-07	-3.119671e-09	-5.575595e+00	-2.034805e+02
6.900000e-07	-7.524944e-07	-3.061531e-09	-5.210225e+00	-1.995688e+02
7.000000e-07	-6.994758e-07	-2.996594e-09	-4.843128e+00	-1.956469e+02
7.100000e-07	-6.461712e-07	-2.927212e-09	-4.474050e+00	-1.916911e+02
7.200000e-07	-5.926613e-07	-2.868290e-09	-4.103551e+00	-1.876631e+02
7.300000e-07	-5.389903e-07	-2.810153e-09	-3.731936e+00	-1.835245e+02
7.400000e-07	-4.851570e-07	-2.739703e-09	-3.359197e+00	-1.792495e+02
7.500000e-07	-4.311086e-07	-2.666147e-09	-2.984970e+00	-1.748336e+02
7.600000e-07	-3.768368e-07	-2.595442e-09	-2.609195e+00	-1.702923e+02
7.700000e-07	-3.224616e-07	-2.529501e-09	-2.232705e+00	-1.656521e+02
7.800000e-07	-2.680435e-07	-2.457602e-09	-1.855917e+00	-1.609373e+02
7.900000e-07	-2.135460e-07	-2.379688e-09	-1.478579e+00	-1.561576e+02
8.000000e-07	-1.589749e-07	-2.301993e-09	-1.100732e+00	-1.513012e+02
8.100000e-07	-1.044097e-07	-2.230732e-09	-7.229267e-01	-1.463384e+02
8.200000e-07	-4.985271e-08	-2.154829e-09	-3.451771e-01	-1.412307e+02
8.300000e-07	4.728132e-09	-2.070025e-09	3.273730e-02	-1.359454e+02
8.400000e-07	5.930082e-08	-1.981049e-09	4.105953e-01	-1.304667e+02
8.500000e-07	1.138886e-07	-1.893471e-09	7.885575e-01	-1.248007e+02
8.600000e-07	1.684732e-07	-1.810807e-09	1.166498e+00	-1.189709e+02
8.700000e-07	2.230025e-07	-1.723037e-09	1.544056e+00	-1.130062e+02
8.800000e-07	2.774425e-07	-1.629601e-09	1.920995e+00	-1.069271e+02
8.900000e-07	3.318135e-07	-1.533589e-09	2.297457e+00	-1.007337e+02
9.000000e-07	3.861118e-07	-1.438125e-09	2.673415e+00	-9.440235e+01
9.100000e-07	4.403079e-07	-1.336946e-09	3.048665e+00	-8.789038e+01
9.200000e-07	4.943386e-07	-1.231103e-09	3.422770e+00	-8.114898e+01
9.300000e-07	5.481598e-07	-1.124536e-09	3.795425e+00	-7.413746e+01
9.400000e-07	6.017457e-07	-1.015045e-09	4.166451e+00	-6.683422e+01
9.500000e-07	6.550248e-07	-9.003924e-10	4.535352e+00	-5.923981e+01
9.600000e-07	7.081019e-07	-7.788963e-10	4.902854e+00	-5.137094e+01
9.700000e-07	7.609461e-07	-6.558049e-10	5.268745e+00	-4.324802e+01
9.800000e-07	8.135278e-07	-5.289224e-10	5.632817e+00	-3.488114e+01
9.900000e-07	8.658948e-07	-3.969125e-10	5.995403e+00	-2.626014e+01
1.000000e-06	9.179534e-07	-2.568851e-10	6.355854e+00	-1.735279e+01
1.010000e-06	9.696174e-07	-1.109113e-10	6.713572e+00	-8.111685e+00
1.020000e-06	1.020707e-06	3.786345e-11	7.067314e+00	1.512533e+00
1.030000e-06	1.071040e-06	1.908398e-10	7.415818e+00	1.155656e+01
1.040000e-06	1.120711e-06	3.506767e-10	7.759738e+00	2.203359e+01
1.050000e-06	1.169882e-06	5.189522e-10	8.100192e+00	3.292953e+01
1.060000e-06	1.218677e-06	6.917420e-10	8.438046e+00	4.420681e+01
1.070000e-06	1.267202e-06	8.680142e-10	8.774032e+00	5.581311e+01
1.080000e-06	1.315402e-06	1.047066e-09	9.107766e+00	6.769084e+01
1.090000e-06	1.363159e-06	1.231826e-09	9.438432e+00	7.978301e+01
1.100000e-06	1.410413e-06	1.421145e-09	9.765616e+00	9.203347e+01
1.110000e-06	1.457189e-06	1.610099e-09	1.008949e+01	1.043819e+02
1.120000e-06	1.503416e-06	1.797265e-09	1.040956e+01	1.167569e+02
1.130000e-06	1.549041e-06	1.982227e-09	1.072546e+01	1.290705e+02
1.140000e-06	1.594187e-06	2.164759e-09	1.103806e+01	1.412193e+02
1.150000e-06	1.638961e-06	2.346748e-09	1.134806e+01	1.530908e+02
1.160000e-06	1.683390e-06	2.525497e-09	1.165569e+01	1.645764e+02
1.170000e-06	1.727282e-06	2.694016e-09	1.195960e+01	1.755838e+02
1.180000e-06	1.770353e-06	2.851962e-09	1.225782e+01	1.860482e+02
1.190000e-06	1.812428e-06	3.001178e-09	1.254914e+01	1.959354e+02
1.200000e-06	1.853633e-06	3.144038e-09	1.283444e+01	2.052380e+02
1.210000e-06	1.894275e-06	3.277746e-09	1.311584e+01	2.139670e+02
1.220000e-06	1.934420e-06	3.402096e-09	1.339381e+01	2.221405e+02
1.230000e-06	1.973957e-06	3.517798e-09	1.366756e+01	2.297762e+02
1.240000e-06	2.012777e-06	3.623239e-09	1.393634e+01	2.368883e+02
1.250000e-06	2.050817e-06	3.720642e-09	1.419973e+01	2.434908e+02
1.260000e-06	2.088156e-06	3.811931e-09	1.445827e+01	2.496036e+02
1.270000e-06	2.124949e-06	3.898855e-09	1.471302e+01	2.552583e+02
1.280000e-06	2.161209e-06	3.978641e-09	1.496408e+01	2.605003e+02
1.290000e-06	2.196745e-06	4.050921e-09	1.521013e+01	2.653847e+02
1.300000e-06	2.231263e-06	4.118145e-09	1.544913e+01	2.699682e+02
1.310000e-06	2.264749e-06	4.182969e-09	1.568098e+01	2.742974e+02
1.320000e-06	2.297453e-06	4.245168e-09	1.590742e+01	2.784011e+02
1.330000e-06	2.329461e-06	4.303200e-09	1.612905e+01	2.822867e+02
1.340000e-06	2.360706e-06	4.356675e-09	1.634538e+01	2.859440e+02
1.350000e-06	2.391138e-06	4.406636e-09	1.655609e+01	2.893554e+02
1.360000e-06	2.420746e-06	4.453406e-09	1.676109e+01	2.925068e+02
1.370000e-06	2.449639e-06	4.494237e-09	1.696115e+01	2.953979e+02
1.380000e-06	2.477849e-06	4.529763e-09	1.715648e+01	2.980460e+02
1.390000e-06	2.505095e-06	4.566030e-09	1.734513e+01	3.004835e+02
1.400000e-06	2.531151e-06	4.604570e-09	1.752554e+01	3.027493e+02
1.410000e-06	2.556097e-06	4.637431e-09	1.769826e+01	3.048791e+02
1.420000e-06	2.580144e-06	4.664538e-09	1.786476e+01	3.068963e+02
1.430000e-06	2.603342e-06	4.692330e-09	1.802538e+01	3.088092e+02
1.440000e-06	2.625667e-06	4.720953e-09	1.817996e+01	3.106125e+02
1.450000e-06	2.647188e-06	4.744174e-09	1.832897e+01	3.122951e+02
1.460000e-06	2.667964e-06	4.759098e-09	1.847282e+01	3.138475e+02
1.470000e-06	2.687968e-06	4.773574e-09	1.861133e+01	3.152690e+02
1.480000e-06	2.707002e-06	4.795183e-09	1.874312e+01	3.165697e+02
1.490000e-06	2.724989e-06	4.821181e-09	1.886766e+01	3.177679e+02
1.500000e-06	2.742046e-06	4.842111e-09	1.898576e+01	3.188845e+02
1.510000e-06	2.758109e-06	4.857342e-09	1.909698e+01	3.199366e+02
1.520000e-06	2.773010e-06	4.871969e-09	1.920015e+01	3.209330e+02
1.530000e-06	2.786819e-06	4.884831e-09	1.929577e+01	3.218737e+02
1.540000e-06	2.799623e-06	4.892976e-09	1.938442e+01	3.227522e+02
1.550000e-06	2.811314e-06	4.897544e-09	1.946537e+01	3.235609e+02
1.560000e-06	2.821768e-06	4.906219e-09	1.953775e+01	3.242949e+02
1.570000e-06	2.831020e-06	4.922393e-09	1.960181e+01	3.249548e+02
1.580000e-06	2.839317e-06	4.940385e-09	1.965926e+01	3.255459e+02
1.590000e-06	2.846708e-06	4.952949e-09	1.971043e+01	3.260754e+02
1.600000e-06	2.853105e-06	4.958702e-09	1.975473e+01	3.265487e+02
1.610000e-06	2.858577e-06	4.961537e-09	1.979262e+01	3.269672e+02
1.620000e-06	2.863190e-06	4.964222e-09	1.982455e+01	3.273285e+02
1.630000e-06	2.866849e-06	4.965114e-09	1.984989e+01	3.276281e+02
1.640000e-06	2.869327e-06	4.965735e-09	1.986705e+01	3.278630e+02
1.650000e-06	2.870629e-06	4.971230e-09	1.987606e+01	3.280339e+02
1.660000e-06	2.870981e-06	4.979089e-09	1.987850e+01	3.281455e+02
1.670000e-06	2.870430e-06	4.983988e-09	1.987468e+01	3.282043e+02
1.680000e-06	2.868946e-06	4.983918e-09	1.986441e+01	3.282150e+02
1.690000e-06	2.866606e-06	4.980001e-09	1.984821e+01	3.281771e+02
1.700000e-06	2.863428e-06	4.979974e-09	1.982620e+01	3.280838e+02
1.710000e-06	2.859456e-06	4.980802e-09	1.979870e+01	3.279235e+02
1.720000e-06	2.854491e-06	4.971635e-09	1.976433e+01	3.276845e+02
1.730000e-06	2.848331e-06	4.938938e-09	1.972167e+01	3.273603e+02
1.740000e-06	2.841146e-06	4.946499e-09	1.967192e+01	3.269537e+02
1.750000e-06	2.832946e-06	5.015094e-09	1.961515e+01	3.264773e+02
1.760000e-06	2.823391e-06	5.012246e-09	1.954899e+01	3.259504e+02
1.770000e-06	2.812441e-06	4.859022e-09	1.947317e+01	3.253929e+02
1.780000e-06	2.800675e-06	4.862849e-09	1.939170e+01	3.248186e+02
1.790000e-06	2.788575e-06	5.014444e-09	1.930793e+01	3.242305e+02
1.800000e-06	2.775673e-06	4.972894e-09	1.921859e+01	3.236201e+02
1.810000e-06	2.761240e-06	4.773948e-09	1.911866e+01	3.229709e+02
1.820000e-06	2.745679e-06	4.899989e-09	1.901091e+01	3.222650e+02
1.830000e-06	2.729450e-06	5.050699e-09	1.889854e+01	3.214895e+02
1.840000e-06	2.712130e-06	4.797377e-09	1.877862e+01	3.206414e+02
1.850000e-06	2.693586e-06	4.804766e-09	1.865023e+01	3.197272e+02
1.860000e-06	2.674270e-06	5.022962e-09	1.851648e+01	3.187593e+02
1.870000e-06	2.654163e-06	4.809781e-09	1.837726e+01	3.177495e+02
1.880000e-06	2.632892e-06	4.703480e-09	1.822998e+01	3.167034e+02
1.890000e-06	2.610536e-06	4.950744e-09	1.807519e+01	3.156173e+02
1.900000e-06	2.587223e-06	4.823762e-09	1.791377e+01	3.144792e+02
1.910000e-06	2.562933e-06	4.672590e-09	1.774560e+01	3.132742e+02
1.920000e-06	2.537824e-06	4.837620e-09	1.757174e+01	3.119905e+02
1.930000e-06	2.511995e-06	4.781495e-09	1.739290e+01	3.106246e+02
1.940000e-06	2.485347e-06	4.649918e-09	1.720839e+01	3.091825e+02
1.950000e-06	2.457883e-06	4.751166e-09	1.701823e+01	3.076774e+02
1.960000e-06	2.429531e-06	4.665187e-09	1.682193e+01	3.061235e+02
1.970000e-06	2.400026e-06	4.608299e-09	1.661763e+01	3.045296e+02
1.980000e-06	2.369514e-06	4.693809e-09	1.640637e+01	3.028953e+02
1.990000e-06	2.338264e-06	4.568254e-09	1.619000e+01	3.012109e+02
2.000000e-06	2.306261e-06	4.546394e-09	1.596841e+01	2.994615e+02
2.010000e-06	2.273446e-06	4.605123e-09	1.574120e+01	2.976342e+02
2.020000e-06	2.239814e-06	4.491235e-09	1.550834e+01	2.957239e+02
2.030000e-06	2.205472e-06	4.480488e-09	1.527056e+01	2.937363e+02
2.040000e-06	2.170495e-06	4.491967e-09	1.502837e+01	2.916862e+02
2.050000e-06	2.134833e-06	4.385651e-09	1.478145e+01	2.895919e+02
2.060000e-06	2.098397e-06	4.382066e-09	1.452917e+01	2.874674e+02
2.070000e-06	2.061071e-06	4.371016e-09	1.427073e+01	2.853167e+02
2.080000e-06	2.022719e-06	4.314803e-09	1.400518e+01	2.831324e+02
2.090000e-06	1.983560e-06	4.298478e-09	1.373405e+01	2.808986e+02
2.100000e-06	1.943907e-06	4.251232e-09	1.345950e+01	2.785984e+02
2.110000e-06	1.903662e-06	4.225602e-09	1.318084e+01	2.762213e+02
2.120000e-06	1.862680e-06	4.182445e-09	1.289708e+01	2.737685e+02
2.130000e-06	1.821044e-06	4.117563e-09	1.260880e+01	2.712528e+02
2.140000e-06	1.778911e-06	4.097673e-09	1.231707e+01	2.686935e+02
2.150000e-06	1.736246e-06	4.069544e-09	1.202166e+01	2.661077e+02
2.160000e-06	1.693012e-06	4.030847e-09	1.172231e+01	2.635025e+02
2.170000e-06	1.649307e-06	3.977279e-09	1.141970e+01	2.608708e+02
2.180000e-06	1.605096e-06	3.926566e-09	1.111358e+01	2.581930e+02
2.190000e-06	1.560270e-06	3.904995e-09	1.080322e+01	2.554444e+02
2.200000e-06	1.514835e-06	3.852083e-09	1.048863e+01	2.526053e+02
2.210000e-06	1.468930e-06	3.804608e-09	1.017078e+01	2.496689e+02
2.220000e-06	1.422572e-06	3.781650e-09	9.849803e+00	2.466448e+02
2.230000e-06	1.375724e-06	3.715641e-09	9.525433e+00	2.435551e+02
2.240000e-06	1.328391e-06	3.670354e-09	9.197701e+00	2.404249e+02
2.250000e-06	1.280472e-06	3.623504e-09	8.865907e+00	2.372712e+02
2.260000e-06	1.231901e-06	3.558820e-09	8.529606e+00	2.340941e+02
2.270000e-06	1.182825e-06	3.525273e-09	8.189811e+00	2.308746e+02
2.280000e-06	1.133373e-06	3.482586e-09	7.847404e+00	2.275803e+02
2.290000e-06	1.083523e-06	3.434837e-09	7.502248e+00	2.241774e+02
2.300000e-06	1.033301e-06	3.377431e-09	7.154516e+00	2.206430e+02
2.310000e-06	9.826614e-07	3.310004e-09	6.803888e+00	2.169751e+02
2.320000e-06	9.316446e-07	3.252582e-09	6.450650e+00	2.131939e+02
2.330000e-06	8.803798e-07	3.193680e-09	6.095696e+00	2.093354e+02
2.340000e-06	8.288013e-07	3.136512e-09	5.738570e+00	2.054378e+02
2.350000e-06	7.768022e-07	3.082570e-09	5.378531e+00	2.015277e+02
2.360000e-06	7.243366e-07	3.024866e-09	5.015263e+00	1.976096e+02
2.370000e-06	6.714209e-07	2.968707e-09	4.648877e+00	1.936643e+02
2.380000e-06	6.180799e-07	2.905068e-09	4.279548e+00	1.896555e+02
2.390000e-06	5.643738e-07	2.841423e-09	3.907690e+00	1.855436e+02
2.400000e-06	5.103718e-07	2.779793e-09	3.533783e+00	1.812993e+02
2.410000e-06	4.560929e-07	2.710222e-09	3.157959e+00	1.769132e+02
2.420000e-06	4.016351e-07	2.648088e-09	2.780897e+00	1.723969e+02
2.430000e-06	3.470390e-07	2.583539e-09	2.402877e+00	1.677759e+02
2.440000e-06	2.923004e-07	2.511151e-09	2.023870e+00	1.630760e+02
2.450000e-06	2.374426e-07	2.436146e-09	1.644038e+00	1.583106e+02
2.460000e-06	1.824600e-07	2.362142e-09	1.263342e+00	1.534730e+02
2.470000e-06	1.274393e-07	2.292682e-09	8.823819e-01	1.485364e+02
2.480000e-06	7.242576e-08	2.214576e-09	5.014715e-01	1.434632e+02
2.490000e-06	1.736704e-08	2.131413e-09	1.202483e-01	1.382182e+02
2.500000e-06	-3.768216e-08	2.050423e-09	-2.609090e-01	1.327815e+02
2.510000e-06	-9.270329e-08	1.967659e-09	-6.418720e-01	1.271545e+02
2.520000e-06	-1.477079e-07	1.879235e-09	-1.022721e+00	1.213575e+02
2.530000e-06	-2.026814e-07	1.787785e-09	-1.403354e+00	1.154198e+02
2.540000e-06	-2.575995e-07	1.696955e-09	-1.783603e+00	1.093647e+02
2.550000e-06	-3.124469e-07	1.604637e-09	-2.163364e+00	1.031973e+02
2.560000e-06	-3.671651e-07	1.509639e-09	-2.542229e+00	9.689888e+01
2.570000e-06	-4.216977e-07	1.411503e-09	-2.919810e+00	9.043001e+01
2.580000e-06	-4.760435e-07	1.308182e-09	-3.296096e+00	8.374197e+01
2.590000e-06	-5.301647e-07	1.198295e-09	-3.670828e+00	7.679119e+01
2.600000e-06	-5.839955e-07	1.087361e-09	-4.043549e+00	6.955143e+01
2.610000e-06	-6.374684e-07	9.753956e-10	-4.413793e+00	6.201868e+01
2.620000e-06	-6.905043e-07	8.592110e-10	-4.781010e+00	5.420710e+01
2.630000e-06	-7.430444e-07	7.360010e-10	-5.144794e+00	4.613751e+01
2.640000e-06	-7.951411e-07	6.088006e-10	-5.505508e+00	3.782326e+01
2.650000e-06	-8.468493e-07	4.794830e-10	-5.863533e+00	2.925902e+01
2.660000e-06	-8.982298e-07	3.455655e-10	-6.219288e+00	2.041696e+01
2.670000e-06	-9.493491e-07	2.070294e-10	-6.573236e+00	1.125197e+01
2.680000e-06	-1.000202e-06	6.161440e-11	-6.925335e+00	1.713861e+00
2.690000e-06	-1.050721e-06	-8.980098e-11	-7.275131e+00	-8.237903e+00
2.700000e-06	-1.100837e-06	-2.479370e-10	-7.622131e+00	-1.862213e+01
2.710000e-06	-1.150493e-06	-4.101647e-10	-7.965945e+00	-2.943049e+01
2.720000e-06	-1.199732e-06	-5.766662e-10	-8.306869e+00	-4.062982e+01
2.730000e-06	-1.248469e-06	-7.509798e-10	-8.644325e+00	-5.217013e+01
2.740000e-06	-1.296455e-06	-9.332957e-10	-8.976579e+00	-6.399427e+01
2.750000e-06	-1.343675e-06	-1.120131e-09	-9.303522e+00	-7.604491e+01
2.760000e-06	-1.390214e-06	-1.309981e-09	-9.625760e+00	-8.826599e+01
2.770000e-06	-1.436188e-06	-1.502319e-09	-9.944079e+00	-1.005987e+02
2.780000e-06	-1.481781e-06	-1.692485e-09	-1.025976e+01	-1.129745e+02
2.790000e-06	-1.527072e-06	-1.879521e-09	-1.057335e+01	-1.253092e+02
2.800000e-06	-1.572016e-06	-2.063040e-09	-1.088454e+01	-1.375023e+02
2.810000e-06	-1.616401e-06	-2.241995e-09	-1.119186e+01	-1.494425e+02
2.820000e-06	-1.660152e-06	-2.417084e-09	-1.149479e+01	-1.610190e+02
2.830000e-06	-1.703445e-06	-2.590653e-09	-1.179455e+01	-1.721351e+02
2.840000e-06	-1.746369e-06	-2.756896e-09	-1.209175e+01	-1.827195e+02
2.850000e-06	-1.788784e-06	-2.910527e-09	-1.238543e+01	-1.927315e+02
2.860000e-06	-1.830558e-06	-3.055179e-09	-1.267467e+01	-2.021586e+02
2.870000e-06	-1.871745e-06	-3.191523e-09	-1.295985e+01	-2.110088e+02
2.880000e-06	-1.912326e-06	-3.317241e-09	-1.324083e+01	-2.192995e+02
2.890000e-06	-1.952269e-06	-3.432335e-09	-1.351739e+01	-2.270488e+02
2.900000e-06	-1.991659e-06	-3.542076e-09	-1.379012e+01	-2.342717e+02
2.910000e-06	-2.030480e-06	-3.648524e-09	-1.405892e+01	-2.409818e+02
2.920000e-06	-2.068526e-06	-3.750381e-09	-1.432235e+01	-2.471971e+02
2.930000e-06	-2.105576e-06	-3.842049e-09	-1.457888e+01	-2.529463e+02
2.940000e-06	-2.141635e-06	-3.922584e-09	-1.482855e+01	-2.582720e+02
