# Temperatura_=_17.47
# Concentracion g/m^3_=_13400.0
# C_Vs_to_Am_M_A/Vsm_=_65563218390.804596
# pendiente_HvsI_1/m_=_3716.3
# ordenada_HvsI_A/m_=_1297.0
# frecuencia_Hz_=_300847.1405748369

Tiempo_(s)	Campo_(V.s)	Magnetizacion_(V.s)	Campo_(kA/m)	Magnetizacion_(A/m)
0.000000e+00	-2.858596e-06	-5.064398e-09	-1.979787e+01	-3.321624e+02
1.000000e-08	-2.857627e-06	-5.056377e-09	-1.979116e+01	-3.322012e+02
2.000000e-08	-2.855660e-06	-5.050838e-09	-1.977754e+01	-3.321700e+02
3.000000e-08	-2.852449e-06	-5.048560e-09	-1.975530e+01	-3.320540e+02
4.000000e-08	-2.848179e-06	-5.046432e-09	-1.972573e+01	-3.318460e+02
5.000000e-08	-2.843122e-06	-5.043747e-09	-1.969070e+01	-3.315494e+02
6.000000e-08	-2.837246e-06	-5.047181e-09	-1.965001e+01	-3.311778e+02
7.000000e-08	-2.830400e-06	-5.045339e-09	-1.960259e+01	-3.307499e+02
8.000000e-08	-2.822478e-06	-5.021902e-09	-1.954773e+01	-3.302829e+02
9.000000e-08	-2.813343e-06	-5.000226e-09	-1.948446e+01	-3.297850e+02
1.000000e-07	-2.802837e-06	-5.032627e-09	-1.941170e+01	-3.292517e+02
1.100000e-07	-2.791126e-06	-5.036594e-09	-1.933059e+01	-3.286666e+02
1.200000e-07	-2.778618e-06	-4.969747e-09	-1.924396e+01	-3.280074e+02
1.300000e-07	-2.765251e-06	-4.927246e-09	-1.915139e+01	-3.272544e+02
1.400000e-07	-2.750872e-06	-5.013096e-09	-1.905180e+01	-3.264002e+02
1.500000e-07	-2.735509e-06	-4.985733e-09	-1.894540e+01	-3.254540e+02
1.600000e-07	-2.718848e-06	-4.905045e-09	-1.883002e+01	-3.244414e+02
1.700000e-07	-2.700858e-06	-4.998960e-09	-1.870542e+01	-3.233974e+02
1.800000e-07	-2.682146e-06	-5.001766e-09	-1.857583e+01	-3.223552e+02
1.900000e-07	-2.662762e-06	-4.898470e-09	-1.844158e+01	-3.213347e+02
2.000000e-07	-2.642411e-06	-4.918451e-09	-1.830063e+01	-3.203355e+02
2.100000e-07	-2.621212e-06	-4.949592e-09	-1.815382e+01	-3.193357e+02
2.200000e-07	-2.599279e-06	-4.847685e-09	-1.800191e+01	-3.182985e+02
2.300000e-07	-2.576448e-06	-4.852987e-09	-1.784379e+01	-3.171839e+02
2.400000e-07	-2.552624e-06	-4.900952e-09	-1.767879e+01	-3.159612e+02
2.500000e-07	-2.528034e-06	-4.826624e-09	-1.750849e+01	-3.146184e+02
2.600000e-07	-2.502676e-06	-4.791264e-09	-1.733286e+01	-3.131642e+02
2.700000e-07	-2.476252e-06	-4.818210e-09	-1.714986e+01	-3.116227e+02
2.800000e-07	-2.448683e-06	-4.746435e-09	-1.695893e+01	-3.100234e+02
2.900000e-07	-2.420143e-06	-4.719329e-09	-1.676126e+01	-3.083891e+02
3.000000e-07	-2.390760e-06	-4.724536e-09	-1.655777e+01	-3.067271e+02
3.100000e-07	-2.360647e-06	-4.668321e-09	-1.634921e+01	-3.050282e+02
3.200000e-07	-2.329854e-06	-4.667103e-09	-1.613594e+01	-3.032711e+02
3.300000e-07	-2.298228e-06	-4.655388e-09	-1.591692e+01	-3.014325e+02
3.400000e-07	-2.265832e-06	-4.599291e-09	-1.569255e+01	-2.994985e+02
3.500000e-07	-2.232844e-06	-4.570175e-09	-1.546408e+01	-2.974707e+02
3.600000e-07	-2.199071e-06	-4.557434e-09	-1.523018e+01	-2.953668e+02
3.700000e-07	-2.164177e-06	-4.506631e-09	-1.498851e+01	-2.932140e+02
3.800000e-07	-2.128202e-06	-4.482235e-09	-1.473936e+01	-2.910378e+02
3.900000e-07	-2.091552e-06	-4.458061e-09	-1.448553e+01	-2.888518e+02
4.000000e-07	-2.054347e-06	-4.412255e-09	-1.422786e+01	-2.866514e+02
4.100000e-07	-2.016425e-06	-4.375709e-09	-1.396522e+01	-2.844155e+02
4.200000e-07	-1.977754e-06	-4.345745e-09	-1.369739e+01	-2.821146e+02
4.300000e-07	-1.938354e-06	-4.309733e-09	-1.342453e+01	-2.797227e+02
4.400000e-07	-1.898288e-06	-4.268245e-09	-1.314704e+01	-2.772287e+02
4.500000e-07	-1.857752e-06	-4.234578e-09	-1.286629e+01	-2.746409e+02
4.600000e-07	-1.816837e-06	-4.191203e-09	-1.258293e+01	-2.719846e+02
4.700000e-07	-1.775284e-06	-4.153377e-09	-1.229515e+01	-2.692923e+02
4.800000e-07	-1.732706e-06	-4.103296e-09	-1.200026e+01	-2.665903e+02
4.900000e-07	-1.689047e-06	-4.049476e-09	-1.169789e+01	-2.638875e+02
5.000000e-07	-1.644700e-06	-4.012932e-09	-1.139075e+01	-2.611709e+02
5.100000e-07	-1.599982e-06	-3.982093e-09	-1.108105e+01	-2.584092e+02
5.200000e-07	-1.554852e-06	-3.935194e-09	-1.076849e+01	-2.555644e+02
5.300000e-07	-1.509159e-06	-3.891856e-09	-1.045203e+01	-2.526055e+02
5.400000e-07	-1.462899e-06	-3.853238e-09	-1.013165e+01	-2.495208e+02
5.500000e-07	-1.416152e-06	-3.793395e-09	-9.807894e+00	-2.463218e+02
5.600000e-07	-1.368912e-06	-3.738876e-09	-9.480718e+00	-2.430389e+02
5.700000e-07	-1.321151e-06	-3.685739e-09	-9.149938e+00	-2.397090e+02
5.800000e-07	-1.272949e-06	-3.632366e-09	-8.816107e+00	-2.363604e+02
5.900000e-07	-1.224419e-06	-3.585715e-09	-8.480002e+00	-2.330013e+02
6.000000e-07	-1.175519e-06	-3.540856e-09	-8.141328e+00	-2.296156e+02
6.100000e-07	-1.126105e-06	-3.486713e-09	-7.799102e+00	-2.261688e+02
6.200000e-07	-1.076045e-06	-3.429330e-09	-7.452401e+00	-2.226212e+02
6.300000e-07	-1.025280e-06	-3.375362e-09	-7.100815e+00	-2.189435e+02
6.400000e-07	-9.739294e-07	-3.314495e-09	-6.745175e+00	-2.151288e+02
6.500000e-07	-9.221106e-07	-3.249492e-09	-6.386292e+00	-2.111961e+02
6.600000e-07	-8.699303e-07	-3.182415e-09	-6.024905e+00	-2.071836e+02
6.700000e-07	-8.175071e-07	-3.122727e-09	-5.661836e+00	-2.031348e+02
6.800000e-07	-7.648363e-07	-3.066498e-09	-5.297052e+00	-1.990816e+02
6.900000e-07	-7.118867e-07	-3.005881e-09	-4.930337e+00	-1.950315e+02
7.000000e-07	-6.587516e-07	-2.939342e-09	-4.562338e+00	-1.909645e+02
7.100000e-07	-6.053903e-07	-2.876384e-09	-4.192772e+00	-1.868388e+02
7.200000e-07	-5.517141e-07	-2.814153e-09	-3.821024e+00	-1.826059e+02
7.300000e-07	-4.978347e-07	-2.742683e-09	-3.447870e+00	-1.782267e+02
7.400000e-07	-4.437485e-07	-2.665341e-09	-3.073284e+00	-1.736847e+02
7.500000e-07	-3.894563e-07	-2.587915e-09	-2.697270e+00	-1.689900e+02
7.600000e-07	-3.350848e-07	-2.517462e-09	-2.320708e+00	-1.641733e+02
7.700000e-07	-2.806772e-07	-2.446036e-09	-1.943895e+00	-1.592724e+02
7.800000e-07	-2.261938e-07	-2.369946e-09	-1.566558e+00	-1.543158e+02
7.900000e-07	-1.716308e-07	-2.293825e-09	-1.188669e+00	-1.493112e+02
8.000000e-07	-1.170582e-07	-2.219939e-09	-8.107137e-01	-1.442411e+02
8.100000e-07	-6.248698e-08	-2.141753e-09	-4.327681e-01	-1.390690e+02
8.200000e-07	-7.896633e-09	-2.055914e-09	-5.468997e-02	-1.337521e+02
8.300000e-07	4.670735e-08	-1.966588e-09	3.234826e-01	-1.282563e+02
8.400000e-07	1.013146e-07	-1.877084e-09	7.016779e-01	-1.225673e+02
8.500000e-07	1.559023e-07	-1.790609e-09	1.079738e+00	-1.166934e+02
8.600000e-07	2.104570e-07	-1.701531e-09	1.457569e+00	-1.106594e+02
8.700000e-07	2.649698e-07	-1.610162e-09	1.835110e+00	-1.044947e+02
8.800000e-07	3.193737e-07	-1.517390e-09	2.211897e+00	-9.821828e+01
8.900000e-07	3.736676e-07	-1.420126e-09	2.587922e+00	-9.182900e+01
9.000000e-07	4.278814e-07	-1.316457e-09	2.963392e+00	-8.530274e+01
9.100000e-07	4.819490e-07	-1.208039e-09	3.337850e+00	-7.859832e+01
9.200000e-07	5.358053e-07	-1.099051e-09	3.710844e+00	-7.166933e+01
9.300000e-07	5.894398e-07	-9.886665e-10	4.082303e+00	-6.447726e+01
9.400000e-07	6.428404e-07	-8.749024e-10	4.452141e+00	-5.700096e+01
9.500000e-07	6.959572e-07	-7.559757e-10	4.820014e+00	-4.923885e+01
9.600000e-07	7.488122e-07	-6.345339e-10	5.186074e+00	-4.120355e+01
9.700000e-07	8.014389e-07	-5.096078e-10	5.550552e+00	-3.291109e+01
9.800000e-07	8.538471e-07	-3.794315e-10	5.913517e+00	-2.436924e+01
9.900000e-07	9.059772e-07	-2.417594e-10	6.274556e+00	-1.556956e+01
1.000000e-06	9.577334e-07	-9.880838e-11	6.633006e+00	-6.486103e+00
1.010000e-06	1.008966e-06	4.610954e-11	6.987831e+00	2.918533e+00
1.020000e-06	1.059495e-06	1.945675e-10	7.337779e+00	1.268222e+01
1.030000e-06	1.109297e-06	3.497234e-10	7.682691e+00	2.283119e+01
1.040000e-06	1.158512e-06	5.132543e-10	8.023541e+00	3.337083e+01
1.050000e-06	1.207351e-06	6.804533e-10	8.361794e+00	4.428219e+01
1.060000e-06	1.255932e-06	8.499746e-10	8.698252e+00	5.552457e+01
1.070000e-06	1.304214e-06	1.023760e-09	9.032638e+00	6.704242e+01
1.080000e-06	1.352083e-06	1.204625e-09	9.364165e+00	7.877337e+01
1.090000e-06	1.399420e-06	1.389312e-09	9.692012e+00	9.065437e+01
1.100000e-06	1.446222e-06	1.573590e-09	1.001615e+01	1.026238e+02
1.110000e-06	1.492517e-06	1.757251e-09	1.033677e+01	1.146199e+02
1.120000e-06	1.538315e-06	1.938824e-09	1.065396e+01	1.265764e+02
1.130000e-06	1.583604e-06	2.117540e-09	1.096762e+01	1.384198e+02
1.140000e-06	1.628415e-06	2.294524e-09	1.127797e+01	1.500676e+02
1.150000e-06	1.672866e-06	2.468092e-09	1.158582e+01	1.614327e+02
1.160000e-06	1.716846e-06	2.636251e-09	1.189042e+01	1.724296e+02
1.170000e-06	1.760086e-06	2.799181e-09	1.218989e+01	1.829826e+02
1.180000e-06	1.802355e-06	2.954575e-09	1.248263e+01	1.930339e+02
1.190000e-06	1.843686e-06	3.100539e-09	1.276888e+01	2.025470e+02
1.200000e-06	1.884376e-06	3.235240e-09	1.305069e+01	2.115075e+02
1.210000e-06	1.924598e-06	3.360798e-09	1.332925e+01	2.199189e+02
1.220000e-06	1.964290e-06	3.479094e-09	1.360415e+01	2.277973e+02
1.230000e-06	2.003307e-06	3.589805e-09	1.387437e+01	2.351655e+02
1.240000e-06	2.041596e-06	3.693579e-09	1.413955e+01	2.420496e+02
1.250000e-06	2.079159e-06	3.789782e-09	1.439970e+01	2.484767e+02
1.260000e-06	2.116101e-06	3.880195e-09	1.465555e+01	2.544758e+02
1.270000e-06	2.152541e-06	3.965752e-09	1.490793e+01	2.600784e+02
1.280000e-06	2.188302e-06	4.046029e-09	1.515560e+01	2.653191e+02
1.290000e-06	2.223042e-06	4.119411e-09	1.539619e+01	2.702341e+02
1.300000e-06	2.256683e-06	4.187233e-09	1.562918e+01	2.748582e+02
1.310000e-06	2.289472e-06	4.252530e-09	1.585627e+01	2.792209e+02
1.320000e-06	2.321581e-06	4.315816e-09	1.607865e+01	2.833435e+02
1.330000e-06	2.352910e-06	4.374675e-09	1.629562e+01	2.872371e+02
1.340000e-06	2.383455e-06	4.426299e-09	1.650718e+01	2.909045e+02
1.350000e-06	2.413242e-06	4.473204e-09	1.671347e+01	2.943427e+02
1.360000e-06	2.442280e-06	4.518979e-09	1.691458e+01	2.975487e+02
1.370000e-06	2.470654e-06	4.563562e-09	1.711109e+01	3.005228e+02
1.380000e-06	2.498142e-06	4.604391e-09	1.730146e+01	3.032726e+02
1.390000e-06	2.524444e-06	4.642715e-09	1.748362e+01	3.058131e+02
1.400000e-06	2.549586e-06	4.678488e-09	1.765775e+01	3.081653e+02
1.410000e-06	2.573830e-06	4.710174e-09	1.782566e+01	3.103527e+02
1.420000e-06	2.597273e-06	4.740195e-09	1.798802e+01	3.123974e+02
1.430000e-06	2.619868e-06	4.768512e-09	1.814451e+01	3.143171e+02
1.440000e-06	2.641553e-06	4.793155e-09	1.829469e+01	3.161231e+02
1.450000e-06	2.662402e-06	4.815252e-09	1.843908e+01	3.178204e+02
1.460000e-06	2.682528e-06	4.836715e-09	1.857847e+01	3.194097e+02
1.470000e-06	2.701756e-06	4.858729e-09	1.871164e+01	3.208891e+02
1.480000e-06	2.719945e-06	4.881352e-09	1.883761e+01	3.222579e+02
1.490000e-06	2.737232e-06	4.903017e-09	1.895734e+01	3.235180e+02
1.500000e-06	2.753567e-06	4.922241e-09	1.907047e+01	3.246755e+02
1.510000e-06	2.768763e-06	4.938979e-09	1.917571e+01	3.257398e+02
1.520000e-06	2.782873e-06	4.952656e-09	1.927343e+01	3.267224e+02
1.530000e-06	2.795933e-06	4.963149e-09	1.936388e+01	3.276344e+02
1.540000e-06	2.807948e-06	4.971834e-09	1.944710e+01	3.284838e+02
1.550000e-06	2.818725e-06	4.980803e-09	1.952174e+01	3.292737e+02
1.560000e-06	2.828209e-06	4.993396e-09	1.958742e+01	3.300018e+02
1.570000e-06	2.836702e-06	5.010382e-09	1.964624e+01	3.306617e+02
1.580000e-06	2.844324e-06	5.025215e-09	1.969903e+01	3.312454e+02
1.590000e-06	2.851002e-06	5.031991e-09	1.974528e+01	3.317466e+02
1.600000e-06	2.856686e-06	5.033499e-09	1.978465e+01	3.321643e+02
1.610000e-06	2.861519e-06	5.036824e-09	1.981811e+01	3.325034e+02
1.620000e-06	2.865485e-06	5.041741e-09	1.984558e+01	3.327751e+02
1.630000e-06	2.868242e-06	5.043359e-09	1.986468e+01	3.329929e+02
1.640000e-06	2.869731e-06	5.043616e-09	1.987499e+01	3.331687e+02
1.650000e-06	2.870238e-06	5.047869e-09	1.987850e+01	3.333084e+02
1.660000e-06	2.869882e-06	5.054464e-09	1.987604e+01	3.334088e+02
1.670000e-06	2.868599e-06	5.057738e-09	1.986715e+01	3.334586e+02
1.680000e-06	2.866412e-06	5.056654e-09	1.985200e+01	3.334415e+02
1.690000e-06	2.863392e-06	5.055961e-09	1.983109e+01	3.333417e+02
1.700000e-06	2.859571e-06	5.055085e-09	1.980463e+01	3.331505e+02
1.710000e-06	2.854756e-06	5.048035e-09	1.977128e+01	3.328693e+02
1.720000e-06	2.848743e-06	5.028878e-09	1.972963e+01	3.325101e+02
1.730000e-06	2.841745e-06	5.029022e-09	1.968117e+01	3.320912e+02
1.740000e-06	2.833900e-06	5.046800e-09	1.962684e+01	3.316305e+02
1.750000e-06	2.824763e-06	5.038747e-09	1.956355e+01	3.311384e+02
1.760000e-06	2.814009e-06	4.973026e-09	1.948908e+01	3.306126e+02
1.770000e-06	2.802291e-06	4.991496e-09	1.940792e+01	3.300387e+02
1.780000e-06	2.790420e-06	5.049286e-09	1.932570e+01	3.293946e+02
1.790000e-06	2.777861e-06	4.991528e-09	1.923873e+01	3.286597e+02
1.800000e-06	2.763613e-06	4.904407e-09	1.914005e+01	3.278237e+02
1.810000e-06	2.748103e-06	4.965821e-09	1.903263e+01	3.268927e+02
1.820000e-06	2.732090e-06	5.013080e-09	1.892173e+01	3.258899e+02
1.830000e-06	2.715076e-06	4.896153e-09	1.880389e+01	3.248492e+02
1.840000e-06	2.696715e-06	4.927939e-09	1.867673e+01	3.238049e+02
1.850000e-06	2.677623e-06	5.014998e-09	1.854451e+01	3.227803e+02
1.860000e-06	2.657836e-06	4.892086e-09	1.840746e+01	3.217787e+02
1.870000e-06	2.636799e-06	4.874576e-09	1.826177e+01	3.207817e+02
1.880000e-06	2.614633e-06	4.974313e-09	1.810825e+01	3.197544e+02
1.890000e-06	2.591558e-06	4.855822e-09	1.794844e+01	3.186566e+02
1.900000e-06	2.567463e-06	4.798430e-09	1.778156e+01	3.174551e+02
1.910000e-06	2.542572e-06	4.874685e-09	1.760918e+01	3.161340e+02
1.920000e-06	2.516979e-06	4.814981e-09	1.743193e+01	3.146985e+02
1.930000e-06	2.490497e-06	4.766131e-09	1.724852e+01	3.131707e+02
1.940000e-06	2.463302e-06	4.814362e-09	1.706017e+01	3.115801e+02
1.950000e-06	2.435336e-06	4.748039e-09	1.686648e+01	3.099512e+02
1.960000e-06	2.406095e-06	4.703289e-09	1.666397e+01	3.082947e+02
1.970000e-06	2.375687e-06	4.719983e-09	1.645338e+01	3.066041e+02
1.980000e-06	2.344512e-06	4.641314e-09	1.623747e+01	3.048594e+02
1.990000e-06	2.312657e-06	4.624551e-09	1.601685e+01	3.030371e+02
2.000000e-06	2.280084e-06	4.636781e-09	1.579125e+01	3.011208e+02
2.010000e-06	2.246688e-06	4.575078e-09	1.555996e+01	2.991092e+02
2.020000e-06	2.212475e-06	4.551318e-09	1.532301e+01	2.970173e+02
2.030000e-06	2.177628e-06	4.524967e-09	1.508167e+01	2.948715e+02
2.040000e-06	2.142207e-06	4.466502e-09	1.483636e+01	2.926984e+02
2.050000e-06	2.106031e-06	4.443529e-09	1.458580e+01	2.905142e+02
2.060000e-06	2.068913e-06	4.406207e-09	1.432874e+01	2.883178e+02
2.070000e-06	2.030707e-06	4.369949e-09	1.406413e+01	2.860906e+02
2.080000e-06	1.991665e-06	4.345553e-09	1.379374e+01	2.838038e+02
2.090000e-06	1.952102e-06	4.300145e-09	1.351974e+01	2.814298e+02
2.100000e-06	1.911968e-06	4.271299e-09	1.324178e+01	2.789543e+02
2.110000e-06	1.871204e-06	4.224656e-09	1.295946e+01	2.763821e+02
2.120000e-06	1.829789e-06	4.173899e-09	1.267263e+01	2.737360e+02
2.130000e-06	1.787739e-06	4.143763e-09	1.238140e+01	2.710482e+02
2.140000e-06	1.745109e-06	4.105485e-09	1.208616e+01	2.683469e+02
2.150000e-06	1.702052e-06	4.067659e-09	1.178796e+01	2.656449e+02
2.160000e-06	1.658625e-06	4.012893e-09	1.148719e+01	2.629329e+02
2.170000e-06	1.614588e-06	3.969567e-09	1.118220e+01	2.601824e+02
2.180000e-06	1.569831e-06	3.944010e-09	1.087223e+01	2.573554e+02
2.190000e-06	1.524508e-06	3.888757e-09	1.055834e+01	2.544187e+02
2.200000e-06	1.478671e-06	3.836318e-09	1.024088e+01	2.513566e+02
2.210000e-06	1.432447e-06	3.800999e-09	9.920747e+00	2.481765e+02
2.220000e-06	1.385832e-06	3.745621e-09	9.597905e+00	2.449062e+02
2.230000e-06	1.338650e-06	3.697719e-09	9.271131e+00	2.415825e+02
2.240000e-06	1.290854e-06	3.643330e-09	8.940108e+00	2.382362e+02
2.250000e-06	1.242441e-06	3.583875e-09	8.604812e+00	2.348798e+02
2.260000e-06	1.193542e-06	3.543754e-09	8.266155e+00	2.315012e+02
2.270000e-06	1.144245e-06	3.494652e-09	7.924735e+00	2.280686e+02
2.280000e-06	1.094528e-06	3.441054e-09	7.580405e+00	2.245420e+02
2.290000e-06	1.044327e-06	3.381555e-09	7.232727e+00	2.208891e+02
2.300000e-06	9.936624e-07	3.320913e-09	6.881840e+00	2.170985e+02
2.310000e-06	9.427048e-07	3.265463e-09	6.528921e+00	2.131847e+02
2.320000e-06	8.915502e-07	3.204066e-09	6.174639e+00	2.091836e+02
2.330000e-06	8.401350e-07	3.140620e-09	5.818551e+00	2.051387e+02
2.340000e-06	7.883641e-07	3.080878e-09	5.459999e+00	2.010852e+02
2.350000e-06	7.361358e-07	3.023930e-09	5.098280e+00	1.970356e+02
2.360000e-06	6.834253e-07	2.963960e-09	4.733221e+00	1.929745e+02
2.370000e-06	6.302620e-07	2.897446e-09	4.365026e+00	1.888632e+02
2.380000e-06	5.766531e-07	2.833529e-09	3.993745e+00	1.846531e+02
2.390000e-06	5.226707e-07	2.772832e-09	3.619878e+00	1.803023e+02
2.400000e-06	4.684182e-07	2.707583e-09	3.244139e+00	1.757896e+02
2.410000e-06	4.140001e-07	2.639385e-09	2.867254e+00	1.711207e+02
2.420000e-06	3.594012e-07	2.564956e-09	2.489117e+00	1.663233e+02
2.430000e-06	3.046500e-07	2.489274e-09	2.109925e+00	1.614352e+02
2.440000e-06	2.498128e-07	2.413896e-09	1.730136e+00	1.564876e+02
2.450000e-06	1.948931e-07	2.337949e-09	1.349777e+00	1.514924e+02
2.460000e-06	1.399076e-07	2.264516e-09	9.689625e-01	1.464366e+02
2.470000e-06	8.490011e-08	2.186904e-09	5.879955e-01	1.412861e+02
2.480000e-06	2.988104e-08	2.106853e-09	2.069481e-01	1.359984e+02
2.490000e-06	-2.515741e-08	2.023849e-09	-1.742335e-01	1.305366e+02
2.500000e-06	-8.016352e-08	1.935626e-09	-5.551911e-01	1.248824e+02
2.510000e-06	-1.351329e-07	1.844728e-09	-9.358945e-01	1.190403e+02
2.520000e-06	-1.900921e-07	1.753835e-09	-1.316527e+00	1.130330e+02
2.530000e-06	-2.449982e-07	1.663297e-09	-1.696792e+00	1.068901e+02
2.540000e-06	-2.998214e-07	1.569407e-09	-2.076483e+00	1.006333e+02
2.550000e-06	-3.545673e-07	1.473052e-09	-2.455639e+00	9.426564e+01
2.560000e-06	-4.091383e-07	1.375387e-09	-2.833583e+00	8.776681e+01
2.570000e-06	-4.635250e-07	1.275249e-09	-3.210250e+00	8.109794e+01
2.580000e-06	-5.177148e-07	1.169717e-09	-3.585554e+00	7.421257e+01
2.590000e-06	-5.715741e-07	1.060553e-09	-3.958569e+00	6.706991e+01
2.600000e-06	-6.250868e-07	9.489976e-10	-4.329184e+00	5.964531e+01
2.610000e-06	-6.782045e-07	8.335772e-10	-4.697063e+00	5.193391e+01
2.620000e-06	-7.308396e-07	7.128383e-10	-5.061600e+00	4.394646e+01
2.630000e-06	-7.830472e-07	5.870507e-10	-5.423176e+00	3.569928e+01
2.640000e-06	-8.348480e-07	4.579149e-10	-5.781934e+00	2.720237e+01
2.650000e-06	-8.862598e-07	3.277545e-10	-6.137999e+00	1.845047e+01
2.660000e-06	-9.373980e-07	1.946035e-10	-6.492168e+00	9.420534e+00
2.670000e-06	-9.882872e-07	5.093735e-11	-6.844613e+00	7.648659e-02
2.680000e-06	-1.038867e-06	-1.025119e-10	-7.194915e+00	-9.620376e+00
2.690000e-06	-1.089045e-06	-2.592346e-10	-7.542432e+00	-1.969916e+01
2.700000e-06	-1.138770e-06	-4.158532e-10	-7.886815e+00	-3.016942e+01
2.710000e-06	-1.188029e-06	-5.774004e-10	-8.227971e+00	-4.101653e+01
2.720000e-06	-1.236824e-06	-7.460888e-10	-8.565914e+00	-5.220325e+01
2.730000e-06	-1.285031e-06	-9.179209e-10	-8.899782e+00	-6.367608e+01
2.740000e-06	-1.332493e-06	-1.091745e-09	-9.228493e+00	-7.537333e+01
2.750000e-06	-1.379255e-06	-1.273708e-09	-9.552351e+00	-8.723178e+01
2.760000e-06	-1.425407e-06	-1.465020e-09	-9.871986e+00	-9.918961e+01
2.770000e-06	-1.471115e-06	-1.653785e-09	-1.018855e+01	-1.111853e+02
2.780000e-06	-1.516500e-06	-1.834092e-09	-1.050288e+01	-1.231537e+02
2.790000e-06	-1.561520e-06	-2.009642e-09	-1.081467e+01	-1.350228e+02
2.800000e-06	-1.606051e-06	-2.185138e-09	-1.112308e+01	-1.467116e+02
2.810000e-06	-1.649979e-06	-2.358858e-09	-1.142732e+01	-1.581333e+02
2.820000e-06	-1.693378e-06	-2.526873e-09	-1.172788e+01	-1.692015e+02
2.830000e-06	-1.736404e-06	-2.687846e-09	-1.202587e+01	-1.798384e+02
2.840000e-06	-1.778970e-06	-2.844553e-09	-1.232067e+01	-1.899822e+02
2.850000e-06	-1.820908e-06	-2.997996e-09	-1.261113e+01	-1.995928e+02
2.860000e-06	-1.862241e-06	-3.139978e-09	-1.289738e+01	-2.086519e+02
2.870000e-06	-1.902986e-06	-3.267059e-09	-1.317957e+01	-2.171601e+02
2.880000e-06	-1.943074e-06	-3.384926e-09	-1.345721e+01	-2.251318e+02
2.890000e-06	-1.982510e-06	-3.500254e-09	-1.373034e+01	-2.325890e+02
2.900000e-06	-2.021408e-06	-3.610558e-09	-1.399973e+01	-2.395573e+02
2.910000e-06	-2.059577e-06	-3.712284e-09	-1.426408e+01	-2.460637e+02
2.920000e-06	-2.096763e-06	-3.805899e-09	-1.452162e+01	-2.521366e+02
2.930000e-06	-2.132991e-06	-3.893649e-09	-1.477252e+01	-2.578072e+02
2.940000e-06	-2.168432e-06	-3.978320e-09	-1.501798e+01	-2.631096e+02
