# Temperatura_=_25.5
# Concentracion g/m^3_=_13400.0
# C_Vs_to_Am_M_A/Vsm_=_65563218390.804596
# pendiente_HvsI_1/m_=_3716.3
# ordenada_HvsI_A/m_=_1297.0
# frecuencia_Hz_=_300838.59828461043

Tiempo_(s)	Campo_(V.s)	Magnetizacion_(V.s)	Campo_(kA/m)	Magnetizacion_(A/m)
0.000000e+00	-2.859212e-06	-5.189870e-09	-1.980291e+01	-3.402343e+02
1.000000e-08	-2.858726e-06	-5.190884e-09	-1.979954e+01	-3.402436e+02
2.000000e-08	-2.857483e-06	-5.187532e-09	-1.979093e+01	-3.402027e+02
3.000000e-08	-2.855165e-06	-5.182621e-09	-1.977487e+01	-3.401145e+02
4.000000e-08	-2.851586e-06	-5.181347e-09	-1.975008e+01	-3.399753e+02
5.000000e-08	-2.847055e-06	-5.179801e-09	-1.971871e+01	-3.397760e+02
6.000000e-08	-2.841740e-06	-5.172064e-09	-1.968189e+01	-3.395054e+02
7.000000e-08	-2.835523e-06	-5.157719e-09	-1.963883e+01	-3.391557e+02
8.000000e-08	-2.828337e-06	-5.158849e-09	-1.958907e+01	-3.387262e+02
9.000000e-08	-2.820091e-06	-5.192121e-09	-1.953195e+01	-3.382254e+02
1.000000e-07	-2.810578e-06	-5.188085e-09	-1.946607e+01	-3.376688e+02
1.100000e-07	-2.799591e-06	-5.095241e-09	-1.938997e+01	-3.370751e+02
1.200000e-07	-2.787530e-06	-5.054275e-09	-1.930643e+01	-3.364607e+02
1.300000e-07	-2.774773e-06	-5.148316e-09	-1.921808e+01	-3.358347e+02
1.400000e-07	-2.760992e-06	-5.189981e-09	-1.912264e+01	-3.351973e+02
1.500000e-07	-2.746263e-06	-5.025320e-09	-1.902062e+01	-3.345396e+02
1.600000e-07	-2.730590e-06	-5.064539e-09	-1.891207e+01	-3.338467e+02
1.700000e-07	-2.713398e-06	-5.180211e-09	-1.879300e+01	-3.331021e+02
1.800000e-07	-2.695004e-06	-5.050832e-09	-1.866560e+01	-3.322908e+02
1.900000e-07	-2.676084e-06	-5.004180e-09	-1.853456e+01	-3.314028e+02
2.000000e-07	-2.656396e-06	-5.102843e-09	-1.839820e+01	-3.304334e+02
2.100000e-07	-2.635701e-06	-5.038294e-09	-1.825487e+01	-3.293831e+02
2.200000e-07	-2.614256e-06	-4.923168e-09	-1.810634e+01	-3.282559e+02
2.300000e-07	-2.592046e-06	-5.043942e-09	-1.795251e+01	-3.270586e+02
2.400000e-07	-2.568799e-06	-5.054163e-09	-1.779151e+01	-3.257987e+02
2.500000e-07	-2.544655e-06	-4.905131e-09	-1.762428e+01	-3.244836e+02
2.600000e-07	-2.519826e-06	-4.908701e-09	-1.745232e+01	-3.231195e+02
2.700000e-07	-2.494124e-06	-4.952255e-09	-1.727431e+01	-3.217093e+02
2.800000e-07	-2.467309e-06	-4.874338e-09	-1.708859e+01	-3.202522e+02
2.900000e-07	-2.439369e-06	-4.857627e-09	-1.689507e+01	-3.187430e+02
3.000000e-07	-2.410487e-06	-4.835155e-09	-1.669504e+01	-3.171728e+02
3.100000e-07	-2.380831e-06	-4.824069e-09	-1.648964e+01	-3.155321e+02
3.200000e-07	-2.350528e-06	-4.822170e-09	-1.627976e+01	-3.138140e+02
3.300000e-07	-2.319470e-06	-4.758898e-09	-1.606465e+01	-3.120175e+02
3.400000e-07	-2.287512e-06	-4.734812e-09	-1.584331e+01	-3.101501e+02
3.500000e-07	-2.254906e-06	-4.710858e-09	-1.561748e+01	-3.082261e+02
3.600000e-07	-2.221735e-06	-4.671917e-09	-1.538774e+01	-3.062633e+02
3.700000e-07	-2.187704e-06	-4.669575e-09	-1.515204e+01	-3.042770e+02
3.800000e-07	-2.152457e-06	-4.652121e-09	-1.490792e+01	-3.022743e+02
3.900000e-07	-2.116177e-06	-4.571089e-09	-1.465665e+01	-3.002505e+02
4.000000e-07	-2.079339e-06	-4.576029e-09	-1.440150e+01	-2.981895e+02
4.100000e-07	-2.041852e-06	-4.563933e-09	-1.414187e+01	-2.960689e+02
4.200000e-07	-2.003608e-06	-4.486852e-09	-1.387699e+01	-2.938677e+02
4.300000e-07	-1.964677e-06	-4.452307e-09	-1.360736e+01	-2.915741e+02
4.400000e-07	-1.924967e-06	-4.434272e-09	-1.333232e+01	-2.891905e+02
4.500000e-07	-1.884605e-06	-4.394763e-09	-1.305278e+01	-2.867338e+02
4.600000e-07	-1.843887e-06	-4.356979e-09	-1.277076e+01	-2.842290e+02
4.700000e-07	-1.802757e-06	-4.322133e-09	-1.248590e+01	-2.817009e+02
4.800000e-07	-1.760841e-06	-4.267983e-09	-1.219558e+01	-2.791637e+02
4.900000e-07	-1.717850e-06	-4.235301e-09	-1.189783e+01	-2.766150e+02
5.000000e-07	-1.673917e-06	-4.198953e-09	-1.159355e+01	-2.740361e+02
5.100000e-07	-1.629405e-06	-4.158395e-09	-1.128526e+01	-2.713975e+02
5.200000e-07	-1.584517e-06	-4.109061e-09	-1.097437e+01	-2.686697e+02
5.300000e-07	-1.539225e-06	-4.071088e-09	-1.066067e+01	-2.658340e+02
5.400000e-07	-1.493363e-06	-4.035372e-09	-1.034303e+01	-2.628893e+02
5.500000e-07	-1.446917e-06	-3.982228e-09	-1.002135e+01	-2.598524e+02
5.600000e-07	-1.399971e-06	-3.926904e-09	-9.696198e+00	-2.567509e+02
5.700000e-07	-1.352488e-06	-3.878504e-09	-9.367337e+00	-2.536121e+02
5.800000e-07	-1.304532e-06	-3.842596e-09	-9.035189e+00	-2.504513e+02
5.900000e-07	-1.256192e-06	-3.791413e-09	-8.700385e+00	-2.472649e+02
6.000000e-07	-1.207536e-06	-3.741077e-09	-8.363393e+00	-2.440303e+02
6.100000e-07	-1.158539e-06	-3.687110e-09	-8.024039e+00	-2.407145e+02
6.200000e-07	-1.109019e-06	-3.634213e-09	-7.681064e+00	-2.372859e+02
6.300000e-07	-1.058787e-06	-3.583433e-09	-7.333159e+00	-2.337268e+02
6.400000e-07	-1.007964e-06	-3.527115e-09	-6.981161e+00	-2.300407e+02
6.500000e-07	-9.565367e-07	-3.465243e-09	-6.624974e+00	-2.262517e+02
6.600000e-07	-9.045408e-07	-3.404464e-09	-6.264850e+00	-2.223955e+02
6.700000e-07	-8.522558e-07	-3.351226e-09	-5.902724e+00	-2.185060e+02
6.800000e-07	-7.997429e-07	-3.290071e-09	-5.539020e+00	-2.146025e+02
6.900000e-07	-7.470170e-07	-3.227881e-09	-5.173840e+00	-2.106818e+02
7.000000e-07	-6.940341e-07	-3.165563e-09	-4.806881e+00	-2.067190e+02
7.100000e-07	-6.408012e-07	-3.109605e-09	-4.438190e+00	-2.026767e+02
7.200000e-07	-5.873371e-07	-3.048819e-09	-4.067897e+00	-1.985178e+02
7.300000e-07	-5.336223e-07	-2.978960e-09	-3.695869e+00	-1.942191e+02
7.400000e-07	-4.796836e-07	-2.904545e-09	-3.322289e+00	-1.897779e+02
7.500000e-07	-4.255252e-07	-2.828358e-09	-2.947188e+00	-1.852109e+02
7.600000e-07	-3.712197e-07	-2.757916e-09	-2.571068e+00	-1.805452e+02
7.700000e-07	-3.168476e-07	-2.687569e-09	-2.194487e+00	-1.758048e+02
7.800000e-07	-2.624055e-07	-2.616586e-09	-1.817421e+00	-1.709989e+02
7.900000e-07	-2.078464e-07	-2.541244e-09	-1.439544e+00	-1.661155e+02
8.000000e-07	-1.531908e-07	-2.466046e-09	-1.061000e+00	-1.611240e+02
8.100000e-07	-9.852297e-08	-2.386564e-09	-6.823702e-01	-1.559850e+02
8.200000e-07	-4.387274e-08	-2.301715e-09	-3.038626e-01	-1.506641e+02
8.300000e-07	1.075179e-08	-2.213096e-09	7.446689e-02	-1.451424e+02
8.400000e-07	6.538551e-08	-2.124050e-09	4.528601e-01	-1.394228e+02
8.500000e-07	1.200272e-07	-2.037276e-09	8.313087e-01	-1.335255e+02
8.600000e-07	1.746464e-07	-1.946505e-09	1.209601e+00	-1.274777e+02
8.700000e-07	2.291798e-07	-1.852992e-09	1.587300e+00	-1.213002e+02
8.800000e-07	2.836371e-07	-1.756605e-09	1.964471e+00	-1.149964e+02
8.900000e-07	3.380527e-07	-1.658978e-09	2.341353e+00	-1.085472e+02
9.000000e-07	3.923741e-07	-1.553785e-09	2.717583e+00	-1.019155e+02
9.100000e-07	4.465081e-07	-1.446272e-09	3.092516e+00	-9.505659e+01
9.200000e-07	5.004427e-07	-1.338421e-09	3.466067e+00	-8.793072e+01
9.300000e-07	5.542231e-07	-1.225535e-09	3.838549e+00	-8.051321e+01
9.400000e-07	6.077389e-07	-1.107741e-09	4.209200e+00	-7.279762e+01
9.500000e-07	6.609916e-07	-9.851396e-10	4.578028e+00	-6.479093e+01
9.600000e-07	7.140566e-07	-8.588335e-10	4.945557e+00	-5.650299e+01
9.700000e-07	7.668792e-07	-7.264807e-10	5.311406e+00	-4.793438e+01
9.800000e-07	8.194204e-07	-5.911085e-10	5.675306e+00	-3.906770e+01
9.900000e-07	8.716981e-07	-4.495118e-10	6.037382e+00	-2.986588e+01
1.000000e-06	9.237022e-07	-3.011817e-10	6.397563e+00	-2.027816e+01
1.010000e-06	9.752637e-07	-1.437989e-10	6.754678e+00	-1.025152e+01
1.020000e-06	1.026224e-06	2.000625e-11	7.107630e+00	2.563345e-01
1.030000e-06	1.076471e-06	1.883517e-10	7.455637e+00	1.126722e+01
1.040000e-06	1.126018e-06	3.647355e-10	7.798799e+00	2.277842e+01
1.050000e-06	1.175043e-06	5.482418e-10	8.138349e+00	3.476484e+01
1.060000e-06	1.223772e-06	7.374640e-10	8.475848e+00	4.718502e+01
1.070000e-06	1.272274e-06	9.300599e-10	8.811772e+00	5.998744e+01
1.080000e-06	1.320384e-06	1.129013e-09	9.144978e+00	7.311367e+01
1.090000e-06	1.368030e-06	1.333265e-09	9.474978e+00	8.649703e+01
1.100000e-06	1.415188e-06	1.542196e-09	9.801596e+00	1.000576e+02
1.110000e-06	1.461852e-06	1.750482e-09	1.012479e+01	1.136971e+02
1.120000e-06	1.507968e-06	1.955584e-09	1.044419e+01	1.272964e+02
1.130000e-06	1.553517e-06	2.155412e-09	1.075966e+01	1.407199e+02
1.140000e-06	1.598602e-06	2.351710e-09	1.107192e+01	1.538266e+02
1.150000e-06	1.643329e-06	2.545565e-09	1.138170e+01	1.664842e+02
1.160000e-06	1.687726e-06	2.729338e-09	1.168919e+01	1.785849e+02
1.170000e-06	1.731556e-06	2.902858e-09	1.199276e+01	1.900554e+02
1.180000e-06	1.774480e-06	3.066586e-09	1.229005e+01	2.008594e+02
1.190000e-06	1.816402e-06	3.222345e-09	1.258040e+01	2.109922e+02
1.200000e-06	1.857544e-06	3.368189e-09	1.286535e+01	2.204692e+02
1.210000e-06	1.898162e-06	3.503698e-09	1.314667e+01	2.293129e+02
1.220000e-06	1.938231e-06	3.626916e-09	1.342419e+01	2.375442e+02
1.230000e-06	1.977657e-06	3.739342e-09	1.369726e+01	2.451788e+02
1.240000e-06	2.016411e-06	3.846184e-09	1.396566e+01	2.522312e+02
1.250000e-06	2.054410e-06	3.944699e-09	1.422884e+01	2.587225e+02
1.260000e-06	2.091711e-06	4.032654e-09	1.448720e+01	2.646876e+02
1.270000e-06	2.128507e-06	4.113749e-09	1.474204e+01	2.701787e+02
1.280000e-06	2.164790e-06	4.193870e-09	1.499334e+01	2.752616e+02
1.290000e-06	2.200254e-06	4.269556e-09	1.523896e+01	2.800066e+02
1.300000e-06	2.234585e-06	4.335527e-09	1.547674e+01	2.844754e+02
1.310000e-06	2.267874e-06	4.395249e-09	1.570730e+01	2.887105e+02
1.320000e-06	2.300448e-06	4.454979e-09	1.593291e+01	2.927293e+02
1.330000e-06	2.332346e-06	4.513546e-09	1.615383e+01	2.965272e+02
1.340000e-06	2.363483e-06	4.566689e-09	1.636948e+01	3.000863e+02
1.350000e-06	2.393784e-06	4.614657e-09	1.657935e+01	3.033883e+02
1.360000e-06	2.423217e-06	4.658228e-09	1.678321e+01	3.064266e+02
1.370000e-06	2.452028e-06	4.698830e-09	1.698275e+01	3.092127e+02
1.380000e-06	2.480199e-06	4.736546e-09	1.717786e+01	3.117753e+02
1.390000e-06	2.507236e-06	4.771737e-09	1.736512e+01	3.141532e+02
1.400000e-06	2.533025e-06	4.805110e-09	1.754374e+01	3.163849e+02
1.410000e-06	2.557898e-06	4.836804e-09	1.771600e+01	3.184986e+02
1.420000e-06	2.581903e-06	4.867708e-09	1.788226e+01	3.205072e+02
1.430000e-06	2.604983e-06	4.897206e-09	1.804211e+01	3.224092e+02
1.440000e-06	2.627202e-06	4.923276e-09	1.819600e+01	3.241944e+02
1.450000e-06	2.648567e-06	4.946908e-09	1.834397e+01	3.258530e+02
1.460000e-06	2.669196e-06	4.968035e-09	1.848685e+01	3.273827e+02
1.470000e-06	2.689040e-06	4.985395e-09	1.862429e+01	3.287915e+02
1.480000e-06	2.707925e-06	5.003054e-09	1.875509e+01	3.300967e+02
1.490000e-06	2.725964e-06	5.025631e-09	1.888003e+01	3.313186e+02
1.500000e-06	2.743091e-06	5.050365e-09	1.899865e+01	3.324733e+02
1.510000e-06	2.759004e-06	5.070597e-09	1.910886e+01	3.335678e+02
1.520000e-06	2.773720e-06	5.085238e-09	1.921079e+01	3.345988e+02
1.530000e-06	2.787438e-06	5.096823e-09	1.930580e+01	3.355550e+02
1.540000e-06	2.800213e-06	5.106387e-09	1.939428e+01	3.364242e+02
1.550000e-06	2.811852e-06	5.115042e-09	1.947489e+01	3.371986e+02
1.560000e-06	2.822103e-06	5.124280e-09	1.954589e+01	3.378795e+02
1.570000e-06	2.831218e-06	5.135848e-09	1.960902e+01	3.384769e+02
1.580000e-06	2.839476e-06	5.150799e-09	1.966621e+01	3.390063e+02
1.590000e-06	2.846809e-06	5.165898e-09	1.971700e+01	3.394828e+02
1.600000e-06	2.853130e-06	5.175110e-09	1.976078e+01	3.399160e+02
1.610000e-06	2.858508e-06	5.177883e-09	1.979803e+01	3.403071e+02
1.620000e-06	2.863085e-06	5.178723e-09	1.982973e+01	3.406499e+02
1.630000e-06	2.866609e-06	5.181977e-09	1.985414e+01	3.409346e+02
1.640000e-06	2.868782e-06	5.187538e-09	1.986919e+01	3.411525e+02
1.650000e-06	2.869875e-06	5.192419e-09	1.987676e+01	3.413003e+02
1.660000e-06	2.870127e-06	5.195674e-09	1.987850e+01	3.413810e+02
1.670000e-06	2.869476e-06	5.198053e-09	1.987400e+01	3.414021e+02
1.680000e-06	2.867891e-06	5.197971e-09	1.986302e+01	3.413716e+02
1.690000e-06	2.865433e-06	5.197164e-09	1.984599e+01	3.412938e+02
1.700000e-06	2.862257e-06	5.195556e-09	1.982400e+01	3.411664e+02
1.710000e-06	2.858236e-06	5.191669e-09	1.979614e+01	3.409810e+02
1.720000e-06	2.852998e-06	5.188410e-09	1.975987e+01	3.407267e+02
1.730000e-06	2.846615e-06	5.192476e-09	1.971566e+01	3.403944e+02
1.740000e-06	2.839444e-06	5.175094e-09	1.966599e+01	3.399818e+02
1.750000e-06	2.831273e-06	5.125148e-09	1.960940e+01	3.394954e+02
1.760000e-06	2.821503e-06	5.130126e-09	1.954173e+01	3.389494e+02
1.770000e-06	2.810135e-06	5.224675e-09	1.946300e+01	3.383623e+02
1.780000e-06	2.798291e-06	5.181744e-09	1.938097e+01	3.377513e+02
1.790000e-06	2.786507e-06	5.083236e-09	1.929935e+01	3.371276e+02
1.800000e-06	2.773473e-06	5.086518e-09	1.920908e+01	3.364933e+02
1.810000e-06	2.758621e-06	5.176060e-09	1.910621e+01	3.358412e+02
1.820000e-06	2.743017e-06	5.093861e-09	1.899814e+01	3.351575e+02
1.830000e-06	2.726853e-06	5.015582e-09	1.888619e+01	3.344254e+02
1.840000e-06	2.709327e-06	5.184886e-09	1.876480e+01	3.336297e+02
1.850000e-06	2.690646e-06	5.140341e-09	1.863542e+01	3.327589e+02
1.860000e-06	2.671437e-06	4.977008e-09	1.850237e+01	3.318072e+02
1.870000e-06	2.651219e-06	5.090579e-09	1.836234e+01	3.307741e+02
1.880000e-06	2.629662e-06	5.117602e-09	1.821304e+01	3.296631e+02
1.890000e-06	2.607154e-06	4.930065e-09	1.805715e+01	3.284803e+02
1.900000e-06	2.583666e-06	4.967710e-09	1.789448e+01	3.272333e+02
1.910000e-06	2.559242e-06	5.057923e-09	1.772531e+01	3.259297e+02
1.920000e-06	2.534202e-06	4.963052e-09	1.755188e+01	3.245759e+02
1.930000e-06	2.508314e-06	4.904173e-09	1.737258e+01	3.231757e+02
1.940000e-06	2.481531e-06	4.937823e-09	1.718709e+01	3.217291e+02
1.950000e-06	2.454137e-06	4.896303e-09	1.699736e+01	3.202319e+02
1.960000e-06	2.425661e-06	4.882634e-09	1.680013e+01	3.186757e+02
1.970000e-06	2.395821e-06	4.835295e-09	1.659346e+01	3.170511e+02
1.980000e-06	2.365132e-06	4.794750e-09	1.638091e+01	3.153500e+02
1.990000e-06	2.333752e-06	4.837276e-09	1.616357e+01	3.135702e+02
2.000000e-06	2.301589e-06	4.770396e-09	1.594081e+01	3.117171e+02
2.010000e-06	2.268686e-06	4.726292e-09	1.571292e+01	3.098039e+02
2.020000e-06	2.234965e-06	4.743593e-09	1.547937e+01	3.078481e+02
2.030000e-06	2.200597e-06	4.653972e-09	1.524133e+01	3.058661e+02
2.040000e-06	2.165668e-06	4.633583e-09	1.499942e+01	3.038671e+02
2.050000e-06	2.130023e-06	4.654491e-09	1.475254e+01	3.018489e+02
2.060000e-06	2.093600e-06	4.553382e-09	1.450028e+01	2.997978e+02
2.070000e-06	2.056121e-06	4.537912e-09	1.424070e+01	2.976921e+02
2.080000e-06	2.017595e-06	4.548766e-09	1.397386e+01	2.955098e+02
2.090000e-06	1.978451e-06	4.475634e-09	1.370275e+01	2.932364e+02
2.100000e-06	1.938774e-06	4.453769e-09	1.342795e+01	2.908713e+02
2.110000e-06	1.898390e-06	4.411384e-09	1.314825e+01	2.884285e+02
2.120000e-06	1.857365e-06	4.357822e-09	1.286411e+01	2.859319e+02
2.130000e-06	1.815758e-06	4.338502e-09	1.257594e+01	2.834073e+02
2.140000e-06	1.773613e-06	4.289879e-09	1.228404e+01	2.808718e+02
2.150000e-06	1.730949e-06	4.249176e-09	1.198855e+01	2.783268e+02
2.160000e-06	1.687783e-06	4.214396e-09	1.168959e+01	2.757568e+02
2.170000e-06	1.644150e-06	4.168019e-09	1.138738e+01	2.731338e+02
2.180000e-06	1.599886e-06	4.135605e-09	1.108081e+01	2.704273e+02
2.190000e-06	1.554923e-06	4.086809e-09	1.076940e+01	2.676157e+02
2.200000e-06	1.509393e-06	4.037407e-09	1.045406e+01	2.646936e+02
2.210000e-06	1.463490e-06	4.004624e-09	1.013613e+01	2.616745e+02
2.220000e-06	1.417165e-06	3.952826e-09	9.815285e+00	2.585846e+02
2.230000e-06	1.370317e-06	3.905534e-09	9.490819e+00	2.554521e+02
2.240000e-06	1.322928e-06	3.848534e-09	9.162601e+00	2.522958e+02
2.250000e-06	1.274920e-06	3.799485e-09	8.830097e+00	2.491163e+02
2.260000e-06	1.226324e-06	3.758671e-09	8.493523e+00	2.458949e+02
2.270000e-06	1.177282e-06	3.704030e-09	8.153854e+00	2.425996e+02
2.280000e-06	1.127847e-06	3.657156e-09	7.811466e+00	2.391974e+02
2.290000e-06	1.077957e-06	3.601863e-09	7.465931e+00	2.356669e+02
2.300000e-06	1.027583e-06	3.545889e-09	7.117044e+00	2.320068e+02
2.310000e-06	9.767909e-07	3.491096e-09	6.765254e+00	2.282372e+02
2.320000e-06	9.257576e-07	3.424081e-09	6.411798e+00	2.243924e+02
2.330000e-06	8.745345e-07	3.361693e-09	6.057027e+00	2.205080e+02
2.340000e-06	8.229862e-07	3.308447e-09	5.700003e+00	2.166071e+02
2.350000e-06	7.709492e-07	3.253001e-09	5.339595e+00	2.126917e+02
2.360000e-06	7.183924e-07	3.193911e-09	4.975586e+00	2.087410e+02
2.370000e-06	6.653977e-07	3.127699e-09	4.608545e+00	2.047192e+02
2.380000e-06	6.119696e-07	3.067319e-09	4.238502e+00	2.005880e+02
2.390000e-06	5.581900e-07	3.007862e-09	3.866024e+00	1.963204e+02
2.400000e-06	5.041095e-07	2.937069e-09	3.491463e+00	1.919091e+02
2.410000e-06	4.497832e-07	2.869028e-09	3.115199e+00	1.873671e+02
2.420000e-06	3.953225e-07	2.801491e-09	2.738004e+00	1.827204e+02
2.430000e-06	3.406838e-07	2.733959e-09	2.359577e+00	1.779948e+02
2.440000e-06	2.859124e-07	2.660927e-09	1.980230e+00	1.732033e+02
2.450000e-06	2.310793e-07	2.583325e-09	1.600455e+00	1.683387e+02
2.460000e-06	1.761783e-07	2.509147e-09	1.220211e+00	1.633737e+02
2.470000e-06	1.212239e-07	2.432962e-09	8.395967e-01	1.582698e+02
2.480000e-06	6.624493e-08	2.354717e-09	4.588125e-01	1.529903e+02
2.490000e-06	1.126322e-08	2.270666e-09	7.800907e-02	1.475123e+02
2.500000e-06	-4.370988e-08	2.181275e-09	-3.027347e-01	1.418341e+02
2.510000e-06	-9.865199e-08	2.092509e-09	-6.832638e-01	1.359727e+02
2.520000e-06	-1.535806e-07	2.004482e-09	-1.063699e+00	1.299551e+02
2.530000e-06	-2.085020e-07	1.911067e-09	-1.444085e+00	1.238047e+02
2.540000e-06	-2.633870e-07	1.813296e-09	-1.824219e+00	1.175289e+02
2.550000e-06	-3.181942e-07	1.715885e-09	-2.203813e+00	1.111136e+02
2.560000e-06	-3.728836e-07	1.619596e-09	-2.582592e+00	1.045249e+02
2.570000e-06	-4.274445e-07	1.515990e-09	-2.960481e+00	9.771859e+01
2.580000e-06	-4.818321e-07	1.403500e-09	-3.337169e+00	9.065278e+01
2.590000e-06	-5.359098e-07	1.290906e-09	-3.711712e+00	8.329907e+01
2.600000e-06	-5.896959e-07	1.177515e-09	-4.084234e+00	7.564725e+01
2.610000e-06	-6.432332e-07	1.059440e-09	-4.455034e+00	6.770219e+01
2.620000e-06	-6.963007e-07	9.332854e-10	-4.822579e+00	5.947415e+01
2.630000e-06	-7.488213e-07	8.032996e-10	-5.186337e+00	5.096662e+01
2.640000e-06	-8.009143e-07	6.708844e-10	-5.547133e+00	4.216647e+01
2.650000e-06	-8.526261e-07	5.342050e-10	-5.905289e+00	3.304059e+01
2.660000e-06	-9.040109e-07	3.894955e-10	-6.261181e+00	2.354031e+01
2.670000e-06	-9.551543e-07	2.359269e-10	-6.615400e+00	1.361201e+01
2.680000e-06	-1.006016e-06	7.864750e-11	-6.967664e+00	3.210072e+00
2.690000e-06	-1.056462e-06	-8.386130e-11	-7.317055e+00	-7.692246e+00
2.700000e-06	-1.106446e-06	-2.560664e-10	-7.663248e+00	-1.909749e+01
2.710000e-06	-1.155990e-06	-4.399512e-10	-8.006386e+00	-3.098495e+01
2.720000e-06	-1.205060e-06	-6.282317e-10	-8.346249e+00	-4.331609e+01
2.730000e-06	-1.253667e-06	-8.193680e-10	-8.682902e+00	-5.604113e+01
2.740000e-06	-1.301636e-06	-1.018189e-09	-9.015130e+00	-6.910308e+01
2.750000e-06	-1.348693e-06	-1.226608e-09	-9.341050e+00	-8.243736e+01
2.760000e-06	-1.395032e-06	-1.438212e-09	-9.661992e+00	-9.596742e+01
2.770000e-06	-1.440925e-06	-1.645943e-09	-9.979845e+00	-1.095991e+02
2.780000e-06	-1.486425e-06	-1.854306e-09	-1.029498e+01	-1.232178e+02
2.790000e-06	-1.531625e-06	-2.064063e-09	-1.060804e+01	-1.366908e+02
2.800000e-06	-1.576499e-06	-2.268215e-09	-1.091883e+01	-1.498768e+02
2.810000e-06	-1.620814e-06	-2.460772e-09	-1.122576e+01	-1.626406e+02
2.820000e-06	-1.664497e-06	-2.646633e-09	-1.152831e+01	-1.748679e+02
2.830000e-06	-1.707752e-06	-2.826885e-09	-1.182789e+01	-1.864776e+02
2.840000e-06	-1.750661e-06	-2.997241e-09	-1.212508e+01	-1.974256e+02
2.850000e-06	-1.793025e-06	-3.154558e-09	-1.241850e+01	-2.077013e+02
2.860000e-06	-1.834732e-06	-3.300180e-09	-1.270735e+01	-2.173168e+02
2.870000e-06	-1.875885e-06	-3.439614e-09	-1.299238e+01	-2.262941e+02
2.880000e-06	-1.916458e-06	-3.570051e-09	-1.327339e+01	-2.346550e+02
2.890000e-06	-1.956310e-06	-3.687914e-09	-1.354941e+01	-2.424161e+02
2.900000e-06	-1.995560e-06	-3.795240e-09	-1.382125e+01	-2.495917e+02
2.910000e-06	-2.034325e-06	-3.897224e-09	-1.408974e+01	-2.562007e+02
2.920000e-06	-2.072330e-06	-3.994568e-09	-1.435296e+01	-2.622746e+02
2.930000e-06	-2.109290e-06	-4.081876e-09	-1.460894e+01	-2.678619e+02
2.940000e-06	-2.145202e-06	-4.158677e-09	-1.485767e+01	-2.730262e+02
