# Temperatura_=_21.85
# Concentracion g/m^3_=_13400.0
# C_Vs_to_Am_M_A/Vsm_=_65563218390.804596
# pendiente_HvsI_1/m_=_3716.3
# ordenada_HvsI_A/m_=_1297.0
# frecuencia_Hz_=_300840.3042736391

Tiempo_(s)	Campo_(V.s)	Magnetizacion_(V.s)	Campo_(kA/m)	Magnetizacion_(A/m)
0.000000e+00	-2.861386e-06	-5.112072e-09	-1.980551e+01	-3.347194e+02
1.000000e-08	-2.861024e-06	-5.112817e-09	-1.980300e+01	-3.347917e+02
2.000000e-08	-2.859830e-06	-5.106123e-09	-1.979474e+01	-3.347753e+02
3.000000e-08	-2.857621e-06	-5.099383e-09	-1.977944e+01	-3.346657e+02
4.000000e-08	-2.854223e-06	-5.096019e-09	-1.975593e+01	-3.344705e+02
5.000000e-08	-2.849809e-06	-5.093055e-09	-1.972537e+01	-3.342069e+02
6.000000e-08	-2.844587e-06	-5.086978e-09	-1.968923e+01	-3.338941e+02
7.000000e-08	-2.838512e-06	-5.083748e-09	-1.964718e+01	-3.335455e+02
8.000000e-08	-2.831446e-06	-5.095597e-09	-1.959828e+01	-3.331630e+02
9.000000e-08	-2.823295e-06	-5.087156e-09	-1.954186e+01	-3.327367e+02
1.000000e-07	-2.813859e-06	-5.057572e-09	-1.947654e+01	-3.322487e+02
1.100000e-07	-2.803003e-06	-5.037021e-09	-1.940140e+01	-3.316816e+02
1.200000e-07	-2.791085e-06	-5.067089e-09	-1.931891e+01	-3.310264e+02
1.300000e-07	-2.778390e-06	-5.059521e-09	-1.923104e+01	-3.302876e+02
1.400000e-07	-2.764759e-06	-4.969270e-09	-1.913669e+01	-3.294834e+02
1.500000e-07	-2.750147e-06	-5.022724e-09	-1.903555e+01	-3.286399e+02
1.600000e-07	-2.734503e-06	-5.052711e-09	-1.892727e+01	-3.277824e+02
1.700000e-07	-2.717536e-06	-4.998500e-09	-1.880983e+01	-3.269263e+02
1.800000e-07	-2.699366e-06	-4.994309e-09	-1.868406e+01	-3.260718e+02
1.900000e-07	-2.680476e-06	-5.018967e-09	-1.855331e+01	-3.252042e+02
2.000000e-07	-2.660877e-06	-4.980407e-09	-1.841766e+01	-3.242993e+02
2.100000e-07	-2.640378e-06	-4.916676e-09	-1.827577e+01	-3.233323e+02
2.200000e-07	-2.619062e-06	-4.960883e-09	-1.812823e+01	-3.222864e+02
2.300000e-07	-2.596933e-06	-4.940966e-09	-1.797506e+01	-3.211578e+02
2.400000e-07	-2.573830e-06	-4.880157e-09	-1.781515e+01	-3.199552e+02
2.500000e-07	-2.549818e-06	-4.897576e-09	-1.764894e+01	-3.186944e+02
2.600000e-07	-2.525066e-06	-4.876333e-09	-1.747762e+01	-3.173896e+02
2.700000e-07	-2.499418e-06	-4.828756e-09	-1.730009e+01	-3.160468e+02
2.800000e-07	-2.472687e-06	-4.840193e-09	-1.711507e+01	-3.146597e+02
2.900000e-07	-2.444863e-06	-4.788325e-09	-1.692248e+01	-3.132122e+02
3.000000e-07	-2.416105e-06	-4.770333e-09	-1.672343e+01	-3.116847e+02
3.100000e-07	-2.386563e-06	-4.769980e-09	-1.651895e+01	-3.100629e+02
3.200000e-07	-2.356273e-06	-4.727415e-09	-1.630929e+01	-3.083450e+02
3.300000e-07	-2.325212e-06	-4.707895e-09	-1.609430e+01	-3.065432e+02
3.400000e-07	-2.293377e-06	-4.685585e-09	-1.587395e+01	-3.046810e+02
3.500000e-07	-2.260884e-06	-4.636419e-09	-1.564905e+01	-3.027847e+02
3.600000e-07	-2.227768e-06	-4.616123e-09	-1.541983e+01	-3.008741e+02
3.700000e-07	-2.193782e-06	-4.613748e-09	-1.518459e+01	-2.989554e+02
3.800000e-07	-2.158630e-06	-4.547904e-09	-1.494128e+01	-2.970188e+02
3.900000e-07	-2.122459e-06	-4.531264e-09	-1.469092e+01	-2.950427e+02
4.000000e-07	-2.085655e-06	-4.520536e-09	-1.443617e+01	-2.930024e+02
4.100000e-07	-2.048254e-06	-4.464896e-09	-1.417729e+01	-2.908797e+02
4.200000e-07	-2.010118e-06	-4.415803e-09	-1.391333e+01	-2.886700e+02
4.300000e-07	-1.971252e-06	-4.397257e-09	-1.364431e+01	-2.863841e+02
4.400000e-07	-1.931675e-06	-4.365197e-09	-1.337037e+01	-2.840437e+02
4.500000e-07	-1.891465e-06	-4.328018e-09	-1.309205e+01	-2.816723e+02
4.600000e-07	-1.850857e-06	-4.294675e-09	-1.281098e+01	-2.792860e+02
4.700000e-07	-1.809845e-06	-4.251342e-09	-1.252711e+01	-2.768859e+02
4.800000e-07	-1.767994e-06	-4.221920e-09	-1.223743e+01	-2.744572e+02
4.900000e-07	-1.725019e-06	-4.176460e-09	-1.193998e+01	-2.719745e+02
5.000000e-07	-1.681161e-06	-4.130773e-09	-1.163640e+01	-2.694104e+02
5.100000e-07	-1.636773e-06	-4.088745e-09	-1.132917e+01	-2.667458e+02
5.200000e-07	-1.592014e-06	-4.057828e-09	-1.101936e+01	-2.639770e+02
5.300000e-07	-1.546788e-06	-4.015206e-09	-1.070632e+01	-2.611164e+02
5.400000e-07	-1.500944e-06	-3.970709e-09	-1.038901e+01	-2.581876e+02
5.500000e-07	-1.454508e-06	-3.920160e-09	-1.006759e+01	-2.552163e+02
5.600000e-07	-1.407551e-06	-3.866094e-09	-9.742576e+00	-2.522197e+02
5.700000e-07	-1.360077e-06	-3.828191e-09	-9.413976e+00	-2.492001e+02
5.800000e-07	-1.312123e-06	-3.777992e-09	-9.082055e+00	-2.461430e+02
5.900000e-07	-1.263781e-06	-3.727039e-09	-8.747448e+00	-2.430218e+02
6.000000e-07	-1.215124e-06	-3.682818e-09	-8.410664e+00	-2.398072e+02
6.100000e-07	-1.166054e-06	-3.639903e-09	-8.071019e+00	-2.364764e+02
6.200000e-07	-1.116364e-06	-3.579745e-09	-7.727082e+00	-2.330210e+02
6.300000e-07	-1.065978e-06	-3.519176e-09	-7.378328e+00	-2.294485e+02
6.400000e-07	-1.015001e-06	-3.461286e-09	-7.025480e+00	-2.257794e+02
6.500000e-07	-9.635029e-07	-3.403876e-09	-6.669028e+00	-2.220394e+02
6.600000e-07	-9.115163e-07	-3.349283e-09	-6.309195e+00	-2.182502e+02
6.700000e-07	-8.591902e-07	-3.290211e-09	-5.947012e+00	-2.144234e+02
6.800000e-07	-8.066476e-07	-3.233681e-09	-5.583331e+00	-2.105574e+02
6.900000e-07	-7.538800e-07	-3.173851e-09	-5.218093e+00	-2.066392e+02
7.000000e-07	-7.008570e-07	-3.113291e-09	-4.851086e+00	-2.026507e+02
7.100000e-07	-6.476072e-07	-3.045667e-09	-4.482509e+00	-1.985742e+02
7.200000e-07	-5.940465e-07	-2.979895e-09	-4.111781e+00	-1.943984e+02
7.300000e-07	-5.402275e-07	-2.914742e-09	-3.739265e+00	-1.901199e+02
7.400000e-07	-4.862711e-07	-2.847658e-09	-3.365798e+00	-1.857414e+02
7.500000e-07	-4.321193e-07	-2.777667e-09	-2.990978e+00	-1.812681e+02
7.600000e-07	-3.777712e-07	-2.703743e-09	-2.614799e+00	-1.767027e+02
7.700000e-07	-3.233479e-07	-2.632418e-09	-2.238101e+00	-1.720424e+02
7.800000e-07	-2.689163e-07	-2.559216e-09	-1.861344e+00	-1.672780e+02
7.900000e-07	-2.144168e-07	-2.485913e-09	-1.484118e+00	-1.623959e+02
8.000000e-07	-1.598777e-07	-2.408320e-09	-1.106617e+00	-1.573820e+02
8.100000e-07	-1.053013e-07	-2.329817e-09	-7.288587e-01	-1.522257e+02
8.200000e-07	-5.067013e-08	-2.248454e-09	-3.507209e-01	-1.469216e+02
8.300000e-07	3.968650e-09	-2.164274e-09	2.746960e-02	-1.414700e+02
8.400000e-07	5.860935e-08	-2.076157e-09	4.056733e-01	-1.358747e+02
8.500000e-07	1.132511e-07	-1.985428e-09	7.838846e-01	-1.301396e+02
8.600000e-07	1.678752e-07	-1.896767e-09	1.161973e+00	-1.242652e+02
8.700000e-07	2.224656e-07	-1.806627e-09	1.539828e+00	-1.182464e+02
8.800000e-07	2.769716e-07	-1.715694e-09	1.917100e+00	-1.120725e+02
8.900000e-07	3.313831e-07	-1.619168e-09	2.293717e+00	-1.057275e+02
9.000000e-07	3.856945e-07	-1.517314e-09	2.669642e+00	-9.919307e+01
9.100000e-07	4.398537e-07	-1.411138e-09	3.044513e+00	-9.245051e+01
9.200000e-07	4.938769e-07	-1.304689e-09	3.418442e+00	-8.548221e+01
9.300000e-07	5.477446e-07	-1.194265e-09	3.791296e+00	-7.827239e+01
9.400000e-07	6.013794e-07	-1.078949e-09	4.162537e+00	-7.080674e+01
9.500000e-07	6.547246e-07	-9.605758e-10	4.531774e+00	-6.307158e+01
9.600000e-07	7.078177e-07	-8.366649e-10	4.899266e+00	-5.505294e+01
9.700000e-07	7.606573e-07	-7.103924e-10	5.265002e+00	-4.673580e+01
9.800000e-07	8.132288e-07	-5.805235e-10	5.628884e+00	-3.810368e+01
9.900000e-07	8.655867e-07	-4.449890e-10	5.991287e+00	-2.913839e+01
1.000000e-06	9.176891e-07	-2.980217e-10	6.351921e+00	-1.982012e+01
1.010000e-06	9.693457e-07	-1.440055e-10	6.709470e+00	-1.012782e+01
1.020000e-06	1.020414e-06	1.197961e-11	7.062946e+00	-4.031896e-02
1.030000e-06	1.070799e-06	1.703929e-10	7.411693e+00	1.046157e+01
1.040000e-06	1.120522e-06	3.364695e-10	7.755859e+00	2.139170e+01
1.050000e-06	1.169725e-06	5.125721e-10	8.096426e+00	3.275435e+01
1.060000e-06	1.218547e-06	6.948369e-10	8.434355e+00	4.453950e+01
1.070000e-06	1.267117e-06	8.815013e-10	8.770535e+00	5.671884e+01
1.080000e-06	1.315408e-06	1.070278e-09	9.104790e+00	6.924323e+01
1.090000e-06	1.363281e-06	1.265267e-09	9.436155e+00	8.204254e+01
1.100000e-06	1.410579e-06	1.462432e-09	9.763534e+00	9.502802e+01
1.110000e-06	1.457284e-06	1.659846e-09	1.008681e+01	1.080967e+02
1.120000e-06	1.503457e-06	1.857374e-09	1.040640e+01	1.211372e+02
1.130000e-06	1.549106e-06	2.053162e-09	1.072236e+01	1.340359e+02
1.140000e-06	1.594282e-06	2.245921e-09	1.103506e+01	1.466824e+02
1.150000e-06	1.639057e-06	2.433880e-09	1.134497e+01	1.589743e+02
1.160000e-06	1.683487e-06	2.614101e-09	1.165251e+01	1.708209e+02
1.170000e-06	1.727402e-06	2.783945e-09	1.195647e+01	1.821463e+02
1.180000e-06	1.770493e-06	2.945247e-09	1.225473e+01	1.928915e+02
1.190000e-06	1.812640e-06	3.098433e-09	1.254646e+01	2.030160e+02
1.200000e-06	1.853926e-06	3.244268e-09	1.283222e+01	2.124991e+02
1.210000e-06	1.894579e-06	3.379654e-09	1.311361e+01	2.213390e+02
1.220000e-06	1.934719e-06	3.504212e-09	1.339144e+01	2.295513e+02
1.230000e-06	1.974274e-06	3.617493e-09	1.366523e+01	2.371656e+02
1.240000e-06	2.013126e-06	3.721351e-09	1.393415e+01	2.442209e+02
1.250000e-06	2.051209e-06	3.818106e-09	1.419775e+01	2.507613e+02
1.260000e-06	2.088576e-06	3.908493e-09	1.445639e+01	2.568317e+02
1.270000e-06	2.125403e-06	3.994540e-09	1.471129e+01	2.624759e+02
1.280000e-06	2.161752e-06	4.076197e-09	1.496289e+01	2.677346e+02
1.290000e-06	2.197344e-06	4.152232e-09	1.520924e+01	2.726459e+02
1.300000e-06	2.231847e-06	4.219694e-09	1.544806e+01	2.772443e+02
1.310000e-06	2.265325e-06	4.280781e-09	1.567978e+01	2.815610e+02
1.320000e-06	2.298035e-06	4.339146e-09	1.590619e+01	2.856218e+02
1.330000e-06	2.330033e-06	4.396746e-09	1.612767e+01	2.894460e+02
1.340000e-06	2.361243e-06	4.452018e-09	1.634369e+01	2.930448e+02
1.350000e-06	2.391654e-06	4.502832e-09	1.655419e+01	2.964219e+02
1.360000e-06	2.421249e-06	4.549587e-09	1.675904e+01	2.995757e+02
1.370000e-06	2.450120e-06	4.590566e-09	1.695887e+01	3.025039e+02
1.380000e-06	2.478381e-06	4.627468e-09	1.715449e+01	3.052084e+02
1.390000e-06	2.505736e-06	4.663781e-09	1.734383e+01	3.076993e+02
1.400000e-06	2.531826e-06	4.698576e-09	1.752441e+01	3.099969e+02
1.410000e-06	2.556775e-06	4.729531e-09	1.769710e+01	3.121293e+02
1.420000e-06	2.580861e-06	4.759886e-09	1.786381e+01	3.141279e+02
1.430000e-06	2.604106e-06	4.792100e-09	1.802471e+01	3.160201e+02
1.440000e-06	2.626456e-06	4.821732e-09	1.817941e+01	3.178235e+02
1.450000e-06	2.647932e-06	4.844926e-09	1.832806e+01	3.195428e+02
1.460000e-06	2.668653e-06	4.863914e-09	1.847148e+01	3.211704e+02
1.470000e-06	2.688630e-06	4.884002e-09	1.860975e+01	3.226919e+02
1.480000e-06	2.707602e-06	4.905724e-09	1.874107e+01	3.240936e+02
1.490000e-06	2.725556e-06	4.927078e-09	1.886534e+01	3.253694e+02
1.500000e-06	2.742619e-06	4.946755e-09	1.898344e+01	3.265250e+02
1.510000e-06	2.758587e-06	4.965950e-09	1.909397e+01	3.275774e+02
1.520000e-06	2.773414e-06	4.984001e-09	1.919660e+01	3.285501e+02
1.530000e-06	2.787293e-06	4.997352e-09	1.929266e+01	3.294656e+02
1.540000e-06	2.800198e-06	5.004722e-09	1.938199e+01	3.303381e+02
1.550000e-06	2.812024e-06	5.011067e-09	1.946384e+01	3.311692e+02
1.560000e-06	2.822553e-06	5.020635e-09	1.953672e+01	3.319487e+02
1.570000e-06	2.831826e-06	5.033560e-09	1.960090e+01	3.326592e+02
1.580000e-06	2.840163e-06	5.049231e-09	1.965861e+01	3.332842e+02
1.590000e-06	2.847586e-06	5.063717e-09	1.970999e+01	3.338154e+02
1.600000e-06	2.854029e-06	5.073819e-09	1.975459e+01	3.342560e+02
1.610000e-06	2.859504e-06	5.078566e-09	1.979248e+01	3.346206e+02
1.620000e-06	2.864134e-06	5.079271e-09	1.982453e+01	3.349293e+02
1.630000e-06	2.867844e-06	5.080607e-09	1.985021e+01	3.351999e+02
1.640000e-06	2.870330e-06	5.084370e-09	1.986742e+01	3.354409e+02
1.650000e-06	2.871611e-06	5.088177e-09	1.987628e+01	3.356484e+02
1.660000e-06	2.871931e-06	5.091563e-09	1.987850e+01	3.358072e+02
1.670000e-06	2.871363e-06	5.094100e-09	1.987457e+01	3.358971e+02
1.680000e-06	2.869911e-06	5.097054e-09	1.986451e+01	3.359011e+02
1.690000e-06	2.867606e-06	5.098568e-09	1.984856e+01	3.358116e+02
1.700000e-06	2.864501e-06	5.097534e-09	1.982707e+01	3.356340e+02
1.710000e-06	2.860582e-06	5.094553e-09	1.979995e+01	3.353839e+02
1.720000e-06	2.855554e-06	5.089325e-09	1.976514e+01	3.350806e+02
1.730000e-06	2.849342e-06	5.076561e-09	1.972214e+01	3.347395e+02
1.740000e-06	2.842205e-06	5.055677e-09	1.967274e+01	3.343652e+02
1.750000e-06	2.834157e-06	5.064448e-09	1.961704e+01	3.339500e+02
1.760000e-06	2.824678e-06	5.088508e-09	1.955143e+01	3.334773e+02
1.770000e-06	2.813635e-06	5.047423e-09	1.947499e+01	3.329288e+02
1.780000e-06	2.801917e-06	5.038833e-09	1.939388e+01	3.322930e+02
1.790000e-06	2.790021e-06	5.036109e-09	1.931154e+01	3.315715e+02
1.800000e-06	2.777143e-06	5.051516e-09	1.922241e+01	3.307797e+02
1.810000e-06	2.762580e-06	4.980162e-09	1.912161e+01	3.299428e+02
1.820000e-06	2.746983e-06	4.970989e-09	1.901365e+01	3.290870e+02
1.830000e-06	2.730823e-06	5.067052e-09	1.890179e+01	3.282304e+02
1.840000e-06	2.713457e-06	5.003590e-09	1.878159e+01	3.273768e+02
1.850000e-06	2.694841e-06	4.967974e-09	1.865274e+01	3.265143e+02
1.860000e-06	2.675600e-06	5.023926e-09	1.851956e+01	3.256200e+02
1.870000e-06	2.655505e-06	4.982301e-09	1.838047e+01	3.246686e+02
1.880000e-06	2.634116e-06	4.915250e-09	1.823243e+01	3.236408e+02
1.890000e-06	2.611734e-06	4.947602e-09	1.807750e+01	3.225300e+02
1.900000e-06	2.588431e-06	4.934398e-09	1.791621e+01	3.213426e+02
1.910000e-06	2.564092e-06	4.886764e-09	1.774775e+01	3.200933e+02
1.920000e-06	2.539085e-06	4.890511e-09	1.757465e+01	3.187975e+02
1.930000e-06	2.513355e-06	4.877281e-09	1.739656e+01	3.174634e+02
1.940000e-06	2.486694e-06	4.821773e-09	1.721202e+01	3.160873e+02
1.950000e-06	2.459327e-06	4.846008e-09	1.702259e+01	3.146548e+02
1.960000e-06	2.431065e-06	4.797006e-09	1.682698e+01	3.131464e+02
1.970000e-06	2.401509e-06	4.743319e-09	1.662240e+01	3.115460e+02
1.980000e-06	2.370907e-06	4.771121e-09	1.641059e+01	3.098485e+02
1.990000e-06	2.339578e-06	4.713560e-09	1.619374e+01	3.080635e+02
2.000000e-06	2.307576e-06	4.677040e-09	1.597223e+01	3.062124e+02
2.010000e-06	2.274883e-06	4.687692e-09	1.574594e+01	3.043218e+02
2.020000e-06	2.241335e-06	4.616967e-09	1.551373e+01	3.024137e+02
2.030000e-06	2.206961e-06	4.582110e-09	1.527581e+01	3.004975e+02
2.040000e-06	2.171998e-06	4.591304e-09	1.503380e+01	2.985666e+02
2.050000e-06	2.136467e-06	4.518908e-09	1.478787e+01	2.966016e+02
2.060000e-06	2.100141e-06	4.491482e-09	1.453644e+01	2.945774e+02
2.070000e-06	2.062757e-06	4.492711e-09	1.427768e+01	2.924737e+02
2.080000e-06	2.024288e-06	4.442103e-09	1.401141e+01	2.902827e+02
2.090000e-06	1.985106e-06	4.404765e-09	1.374021e+01	2.880120e+02
2.100000e-06	1.945430e-06	4.369257e-09	1.346558e+01	2.856816e+02
2.110000e-06	1.905128e-06	4.329925e-09	1.318662e+01	2.833156e+02
2.120000e-06	1.864174e-06	4.295880e-09	1.290316e+01	2.809323e+02
2.130000e-06	1.822608e-06	4.250509e-09	1.261545e+01	2.785363e+02
2.140000e-06	1.780429e-06	4.216712e-09	1.232350e+01	2.761161e+02
2.150000e-06	1.737688e-06	4.196202e-09	1.202767e+01	2.736478e+02
2.160000e-06	1.694508e-06	4.153621e-09	1.172879e+01	2.711036e+02
2.170000e-06	1.650922e-06	4.103585e-09	1.142710e+01	2.684619e+02
2.180000e-06	1.606704e-06	4.057537e-09	1.112104e+01	2.657154e+02
2.190000e-06	1.561790e-06	4.017341e-09	1.081016e+01	2.628731e+02
2.200000e-06	1.516317e-06	3.978303e-09	1.049541e+01	2.599572e+02
2.210000e-06	1.470372e-06	3.934105e-09	1.017740e+01	2.569935e+02
2.220000e-06	1.424045e-06	3.893599e-09	9.856737e+00	2.540020e+02
2.230000e-06	1.377281e-06	3.840241e-09	9.533054e+00	2.509885e+02
2.240000e-06	1.329857e-06	3.798688e-09	9.204803e+00	2.479418e+02
2.250000e-06	1.281761e-06	3.751764e-09	8.871902e+00	2.448373e+02
2.260000e-06	1.233150e-06	3.691971e-09	8.535430e+00	2.416454e+02
2.270000e-06	1.184095e-06	3.648852e-09	8.195891e+00	2.383413e+02
2.280000e-06	1.134642e-06	3.603909e-09	7.853590e+00	2.349129e+02
2.290000e-06	1.084761e-06	3.548868e-09	7.508333e+00	2.313645e+02
2.300000e-06	1.034395e-06	3.490864e-09	7.159717e+00	2.277145e+02
2.310000e-06	9.836104e-07	3.432029e-09	6.808205e+00	2.239880e+02
2.320000e-06	9.325595e-07	3.372697e-09	6.454849e+00	2.202084e+02
2.330000e-06	8.812691e-07	3.314985e-09	6.099835e+00	2.163898e+02
2.340000e-06	8.297410e-07	3.256009e-09	5.743175e+00	2.125334e+02
2.350000e-06	7.778679e-07	3.201759e-09	5.384128e+00	2.086283e+02
2.360000e-06	7.254590e-07	3.143277e-09	5.021372e+00	2.046569e+02
2.370000e-06	6.725306e-07	3.080166e-09	4.655021e+00	2.006010e+02
2.380000e-06	6.192160e-07	3.016688e-09	4.285995e+00	1.964475e+02
2.390000e-06	5.655299e-07	2.952419e-09	3.914399e+00	1.921913e+02
2.400000e-06	5.114363e-07	2.889358e-09	3.539982e+00	1.878342e+02
2.410000e-06	4.570424e-07	2.821610e-09	3.163487e+00	1.833813e+02
2.420000e-06	4.025084e-07	2.756028e-09	2.786022e+00	1.788362e+02
2.430000e-06	3.478424e-07	2.689411e-09	2.407643e+00	1.741973e+02
2.440000e-06	2.930266e-07	2.617132e-09	2.028227e+00	1.694566e+02
2.450000e-06	2.381551e-07	2.540005e-09	1.648426e+00	1.646013e+02
2.460000e-06	1.832042e-07	2.461617e-09	1.268075e+00	1.596173e+02
2.470000e-06	1.281803e-07	2.385392e-09	8.872188e-01	1.544926e+02
2.480000e-06	7.321396e-08	2.307172e-09	5.067613e-01	1.492207e+02
2.490000e-06	1.825314e-08	2.224162e-09	1.263418e-01	1.438009e+02
2.500000e-06	-3.676934e-08	2.139295e-09	-2.545044e-01	1.382365e+02
2.510000e-06	-9.179358e-08	2.056253e-09	-6.353629e-01	1.325316e+02
2.520000e-06	-1.468082e-07	1.969653e-09	-1.016155e+00	1.266877e+02
2.530000e-06	-2.017875e-07	1.877374e-09	-1.396702e+00	1.207010e+02
2.540000e-06	-2.567106e-07	1.780162e-09	-1.776861e+00	1.145620e+02
2.550000e-06	-3.115254e-07	1.682839e-09	-2.156269e+00	1.082556e+02
2.560000e-06	-3.662099e-07	1.587073e-09	-2.534776e+00	1.017638e+02
2.570000e-06	-4.208253e-07	1.487094e-09	-2.912805e+00	9.506782e+01
2.580000e-06	-4.752668e-07	1.381105e-09	-3.289630e+00	8.814972e+01
2.590000e-06	-5.293806e-07	1.270209e-09	-3.664186e+00	8.099335e+01
2.600000e-06	-5.831986e-07	1.159338e-09	-4.036696e+00	7.358412e+01
2.610000e-06	-6.366875e-07	1.045912e-09	-4.406927e+00	6.590832e+01
2.620000e-06	-6.897243e-07	9.245852e-10	-4.774029e+00	5.795209e+01
2.630000e-06	-7.423070e-07	7.945526e-10	-5.137988e+00	4.970070e+01
2.640000e-06	-7.944573e-07	6.627775e-10	-5.498954e+00	4.113799e+01
2.650000e-06	-8.461481e-07	5.318340e-10	-5.856739e+00	3.224615e+01
2.660000e-06	-8.974965e-07	3.952776e-10	-6.212155e+00	2.300571e+01
2.670000e-06	-9.486163e-07	2.482878e-10	-6.565988e+00	1.339581e+01
2.680000e-06	-9.994616e-07	9.403782e-11	-6.917922e+00	3.395162e+00
2.690000e-06	-1.049966e-06	-6.275764e-11	-7.267499e+00	-7.016072e+00
2.700000e-06	-1.100075e-06	-2.258825e-10	-7.614334e+00	-1.785324e+01
2.710000e-06	-1.149803e-06	-3.964839e-10	-7.958533e+00	-2.912304e+01
2.720000e-06	-1.199058e-06	-5.750818e-10	-8.299456e+00	-4.081892e+01
2.730000e-06	-1.247865e-06	-7.591022e-10	-8.637286e+00	-5.291676e+01
2.740000e-06	-1.296109e-06	-9.479400e-10	-8.971208e+00	-6.537197e+01
2.750000e-06	-1.343492e-06	-1.141422e-09	-9.299179e+00	-7.811881e+01
2.760000e-06	-1.390118e-06	-1.341267e-09	-9.621905e+00	-9.107222e+01
2.770000e-06	-1.436198e-06	-1.546587e-09	-9.940855e+00	-1.041318e+02
2.780000e-06	-1.481896e-06	-1.749913e-09	-1.025716e+01	-1.171875e+02
2.790000e-06	-1.527249e-06	-1.948188e-09	-1.057108e+01	-1.301256e+02
2.800000e-06	-1.572169e-06	-2.141797e-09	-1.088200e+01	-1.428346e+02
2.810000e-06	-1.616555e-06	-2.329875e-09	-1.118923e+01	-1.552101e+02
2.820000e-06	-1.660331e-06	-2.510769e-09	-1.149223e+01	-1.671587e+02
2.830000e-06	-1.703629e-06	-2.684567e-09	-1.179192e+01	-1.786009e+02
2.840000e-06	-1.746572e-06	-2.850995e-09	-1.208916e+01	-1.894741e+02
2.850000e-06	-1.789050e-06	-3.010222e-09	-1.238317e+01	-1.997335e+02
2.860000e-06	-1.830921e-06	-3.162302e-09	-1.267299e+01	-2.093544e+02
2.870000e-06	-1.872158e-06	-3.304439e-09	-1.295842e+01	-2.183309e+02
2.880000e-06	-1.912735e-06	-3.432784e-09	-1.323928e+01	-2.266752e+02
2.890000e-06	-1.952630e-06	-3.548644e-09	-1.351542e+01	-2.344142e+02
2.900000e-06	-1.991963e-06	-3.656074e-09	-1.378767e+01	-2.415852e+02
2.910000e-06	-2.030794e-06	-3.757235e-09	-1.405645e+01	-2.482316e+02
2.920000e-06	-2.068847e-06	-3.853871e-09	-1.431983e+01	-2.543986e+02
2.930000e-06	-2.105827e-06	-3.945300e-09	-1.457579e+01	-2.601301e+02
2.940000e-06	-2.141851e-06	-4.030982e-09	-1.482514e+01	-2.654677e+02
