# Temperatura_=_23.0
# Concentracion g/m^3_=_13400.0
# C_Vs_to_Am_M_A/Vsm_=_65563218390.804596
# pendiente_HvsI_1/m_=_3716.3
# ordenada_HvsI_A/m_=_1297.0
# frecuencia_Hz_=_300839.69368136575

Tiempo_(s)	Campo_(V.s)	Magnetizacion_(V.s)	Campo_(kA/m)	Magnetizacion_(A/m)
0.000000e+00	-2.860766e-06	-5.152186e-09	-1.980387e+01	-3.374259e+02
1.000000e-08	-2.860294e-06	-5.151171e-09	-1.980060e+01	-3.374485e+02
2.000000e-08	-2.859039e-06	-5.144435e-09	-1.979191e+01	-3.374016e+02
3.000000e-08	-2.856755e-06	-5.139015e-09	-1.977610e+01	-3.373004e+02
4.000000e-08	-2.853233e-06	-5.138577e-09	-1.975172e+01	-3.371559e+02
5.000000e-08	-2.848718e-06	-5.140104e-09	-1.972047e+01	-3.369708e+02
6.000000e-08	-2.843448e-06	-5.140854e-09	-1.968399e+01	-3.367388e+02
7.000000e-08	-2.837310e-06	-5.151365e-09	-1.964149e+01	-3.364484e+02
8.000000e-08	-2.830140e-06	-5.151423e-09	-1.959186e+01	-3.360880e+02
9.000000e-08	-2.821847e-06	-5.103842e-09	-1.953445e+01	-3.356513e+02
1.000000e-07	-2.812299e-06	-5.041453e-09	-1.946835e+01	-3.351401e+02
1.100000e-07	-2.801427e-06	-5.115345e-09	-1.939309e+01	-3.345638e+02
1.200000e-07	-2.789529e-06	-5.181649e-09	-1.931072e+01	-3.339365e+02
1.300000e-07	-2.776780e-06	-5.096223e-09	-1.922247e+01	-3.332716e+02
1.400000e-07	-2.763074e-06	-4.966246e-09	-1.912759e+01	-3.325775e+02
1.500000e-07	-2.748414e-06	-5.111259e-09	-1.902611e+01	-3.318554e+02
1.600000e-07	-2.732655e-06	-5.155320e-09	-1.891701e+01	-3.310992e+02
1.700000e-07	-2.715581e-06	-4.968305e-09	-1.879882e+01	-3.302983e+02
1.800000e-07	-2.697323e-06	-5.057584e-09	-1.867242e+01	-3.294424e+02
1.900000e-07	-2.678328e-06	-5.120560e-09	-1.854093e+01	-3.285247e+02
2.000000e-07	-2.658656e-06	-4.978917e-09	-1.840475e+01	-3.275443e+02
2.100000e-07	-2.638138e-06	-4.969572e-09	-1.826271e+01	-3.265060e+02
2.200000e-07	-2.616783e-06	-5.070818e-09	-1.811488e+01	-3.254180e+02
2.300000e-07	-2.594586e-06	-4.966710e-09	-1.796122e+01	-3.242878e+02
2.400000e-07	-2.571465e-06	-4.903765e-09	-1.780116e+01	-3.231190e+02
2.500000e-07	-2.547420e-06	-4.976668e-09	-1.763471e+01	-3.219087e+02
2.600000e-07	-2.522597e-06	-4.946505e-09	-1.746287e+01	-3.206470e+02
2.700000e-07	-2.496936e-06	-4.857270e-09	-1.728523e+01	-3.193191e+02
2.800000e-07	-2.470183e-06	-4.883031e-09	-1.710003e+01	-3.179091e+02
2.900000e-07	-2.442313e-06	-4.852222e-09	-1.690709e+01	-3.164041e+02
3.000000e-07	-2.413494e-06	-4.823035e-09	-1.670759e+01	-3.147986e+02
3.100000e-07	-2.383839e-06	-4.821420e-09	-1.650231e+01	-3.130965e+02
3.200000e-07	-2.353438e-06	-4.760449e-09	-1.629185e+01	-3.113108e+02
3.300000e-07	-2.322300e-06	-4.773065e-09	-1.607630e+01	-3.094614e+02
3.400000e-07	-2.290379e-06	-4.732545e-09	-1.585532e+01	-3.075695e+02
3.500000e-07	-2.257776e-06	-4.672160e-09	-1.562963e+01	-3.056521e+02
3.600000e-07	-2.224563e-06	-4.670530e-09	-1.539971e+01	-3.037169e+02
3.700000e-07	-2.190531e-06	-4.643742e-09	-1.516412e+01	-3.017602e+02
3.800000e-07	-2.155366e-06	-4.575187e-09	-1.492068e+01	-2.997670e+02
3.900000e-07	-2.119177e-06	-4.586695e-09	-1.467016e+01	-2.977166e+02
4.000000e-07	-2.082325e-06	-4.566491e-09	-1.441505e+01	-2.955887e+02
4.100000e-07	-2.044858e-06	-4.487833e-09	-1.415568e+01	-2.933713e+02
4.200000e-07	-2.006688e-06	-4.459032e-09	-1.389145e+01	-2.910656e+02
4.300000e-07	-1.967784e-06	-4.430466e-09	-1.362213e+01	-2.886872e+02
4.400000e-07	-1.928148e-06	-4.393791e-09	-1.334775e+01	-2.862618e+02
4.500000e-07	-1.887878e-06	-4.353673e-09	-1.306898e+01	-2.838174e+02
4.600000e-07	-1.847183e-06	-4.323372e-09	-1.278726e+01	-2.813744e+02
4.700000e-07	-1.806072e-06	-4.282102e-09	-1.250267e+01	-2.789379e+02
4.800000e-07	-1.764177e-06	-4.252911e-09	-1.221265e+01	-2.764942e+02
4.900000e-07	-1.721205e-06	-4.202471e-09	-1.191517e+01	-2.740142e+02
5.000000e-07	-1.677287e-06	-4.148338e-09	-1.161114e+01	-2.714614e+02
5.100000e-07	-1.632790e-06	-4.114222e-09	-1.130311e+01	-2.688046e+02
5.200000e-07	-1.587946e-06	-4.083496e-09	-1.099267e+01	-2.660272e+02
5.300000e-07	-1.542725e-06	-4.045660e-09	-1.067963e+01	-2.631337e+02
5.400000e-07	-1.496929e-06	-3.994112e-09	-1.036260e+01	-2.601476e+02
5.500000e-07	-1.450489e-06	-3.944679e-09	-1.004112e+01	-2.571030e+02
5.600000e-07	-1.403547e-06	-3.887810e-09	-9.716160e+00	-2.540316e+02
5.700000e-07	-1.356123e-06	-3.851945e-09	-9.387866e+00	-2.509509e+02
5.800000e-07	-1.308181e-06	-3.801838e-09	-9.055980e+00	-2.478570e+02
5.900000e-07	-1.259828e-06	-3.746672e-09	-8.721255e+00	-2.447251e+02
6.000000e-07	-1.211144e-06	-3.704940e-09	-8.384239e+00	-2.415181e+02
6.100000e-07	-1.162043e-06	-3.661799e-09	-8.044330e+00	-2.382001e+02
6.200000e-07	-1.112416e-06	-3.604838e-09	-7.700785e+00	-2.347492e+02
6.300000e-07	-1.062185e-06	-3.538229e-09	-7.353055e+00	-2.311661e+02
6.400000e-07	-1.011298e-06	-3.483402e-09	-7.000787e+00	-2.274735e+02
6.500000e-07	-9.598118e-07	-3.429481e-09	-6.644370e+00	-2.237077e+02
6.600000e-07	-9.078800e-07	-3.375940e-09	-6.284868e+00	-2.199051e+02
6.700000e-07	-8.556024e-07	-3.311841e-09	-5.922972e+00	-2.160882e+02
6.800000e-07	-8.030606e-07	-3.251485e-09	-5.559248e+00	-2.122573e+02
6.900000e-07	-7.503178e-07	-3.193925e-09	-5.194132e+00	-2.083904e+02
7.000000e-07	-6.973188e-07	-3.135265e-09	-4.827242e+00	-2.044515e+02
7.100000e-07	-6.440568e-07	-3.070947e-09	-4.458532e+00	-2.004044e+02
7.200000e-07	-5.905788e-07	-3.002519e-09	-4.088327e+00	-1.962257e+02
7.300000e-07	-5.368951e-07	-2.938172e-09	-3.716697e+00	-1.919128e+02
7.400000e-07	-4.829570e-07	-2.869380e-09	-3.343306e+00	-1.874830e+02
7.500000e-07	-4.287707e-07	-2.798234e-09	-2.968198e+00	-1.829644e+02
7.600000e-07	-3.744502e-07	-2.722012e-09	-2.592160e+00	-1.783819e+02
7.700000e-07	-3.200520e-07	-2.651267e-09	-2.215584e+00	-1.737445e+02
7.800000e-07	-2.655731e-07	-2.582844e-09	-1.838450e+00	-1.690387e+02
7.900000e-07	-2.110143e-07	-2.511346e-09	-1.460763e+00	-1.642313e+02
8.000000e-07	-1.564170e-07	-2.433766e-09	-1.082809e+00	-1.592800e+02
8.100000e-07	-1.017959e-07	-2.353288e-09	-7.046900e-01	-1.541484e+02
8.200000e-07	-4.714080e-08	-2.274105e-09	-3.263357e-01	-1.488189e+02
8.300000e-07	7.542682e-09	-2.190226e-09	5.221479e-02	-1.432985e+02
8.400000e-07	6.225525e-08	-2.101759e-09	4.309667e-01	-1.376142e+02
8.500000e-07	1.169354e-07	-2.008097e-09	8.094940e-01	-1.318010e+02
8.600000e-07	1.715447e-07	-1.917729e-09	1.187531e+00	-1.258849e+02
8.700000e-07	2.261325e-07	-1.827883e-09	1.565420e+00	-1.198699e+02
8.800000e-07	2.807035e-07	-1.736598e-09	1.943191e+00	-1.137318e+02
8.900000e-07	3.351653e-07	-1.639931e-09	2.320207e+00	-1.074239e+02
9.000000e-07	3.894425e-07	-1.537855e-09	2.695945e+00	-1.008896e+02
9.100000e-07	4.435718e-07	-1.433300e-09	3.070659e+00	-9.408027e+01
9.200000e-07	4.975941e-07	-1.325471e-09	3.444633e+00	-8.696817e+01
9.300000e-07	5.514405e-07	-1.213070e-09	3.817389e+00	-7.955209e+01
9.400000e-07	6.050787e-07	-1.091294e-09	4.188703e+00	-7.185173e+01
9.500000e-07	6.584838e-07	-9.672857e-10	4.558404e+00	-6.389372e+01
9.600000e-07	7.116026e-07	-8.429962e-10	4.926123e+00	-5.569482e+01
9.700000e-07	7.644510e-07	-7.193315e-10	5.291970e+00	-4.724866e+01
9.800000e-07	8.170526e-07	-5.867132e-10	5.656109e+00	-3.852159e+01
9.900000e-07	8.694187e-07	-4.434224e-10	6.018617e+00	-2.945901e+01
1.000000e-06	9.214251e-07	-2.946212e-10	6.378635e+00	-1.999997e+01
1.010000e-06	9.729331e-07	-1.403268e-10	6.735203e+00	-1.009425e+01
1.020000e-06	1.023903e-06	1.925007e-11	7.088047e+00	2.844661e-01
1.030000e-06	1.074222e-06	1.875461e-10	7.436381e+00	1.113390e+01
1.040000e-06	1.123915e-06	3.615502e-10	7.780386e+00	2.242815e+01
1.050000e-06	1.173118e-06	5.391486e-10	8.120996e+00	3.412908e+01
1.060000e-06	1.221942e-06	7.186186e-10	8.458988e+00	4.619862e+01
1.070000e-06	1.270475e-06	9.081090e-10	8.794956e+00	5.860573e+01
1.080000e-06	1.318658e-06	1.107229e-09	9.128509e+00	7.132436e+01
1.090000e-06	1.366357e-06	1.307257e-09	9.458713e+00	8.432282e+01
1.100000e-06	1.413542e-06	1.505658e-09	9.785349e+00	9.754858e+01
1.110000e-06	1.460246e-06	1.706627e-09	1.010867e+01	1.109155e+02
1.120000e-06	1.506443e-06	1.911994e-09	1.042847e+01	1.242994e+02
1.130000e-06	1.552110e-06	2.112442e-09	1.074460e+01	1.375463e+02
1.140000e-06	1.597295e-06	2.305456e-09	1.105740e+01	1.504912e+02
1.150000e-06	1.642071e-06	2.492900e-09	1.136736e+01	1.629828e+02
1.160000e-06	1.686457e-06	2.677040e-09	1.167463e+01	1.749058e+02
1.170000e-06	1.730250e-06	2.852523e-09	1.197779e+01	1.861944e+02
1.180000e-06	1.773154e-06	3.014458e-09	1.227479e+01	1.968314e+02
1.190000e-06	1.815152e-06	3.163765e-09	1.256553e+01	2.068355e+02
1.200000e-06	1.856387e-06	3.305806e-09	1.285098e+01	2.162407e+02
1.210000e-06	1.897016e-06	3.442332e-09	1.313223e+01	2.250762e+02
1.220000e-06	1.937109e-06	3.566799e-09	1.340978e+01	2.333542e+02
1.230000e-06	1.976575e-06	3.678350e-09	1.368299e+01	2.410691e+02
1.240000e-06	2.015319e-06	3.782874e-09	1.395120e+01	2.482082e+02
1.250000e-06	2.053377e-06	3.884161e-09	1.421466e+01	2.547682e+02
1.260000e-06	2.090780e-06	3.976804e-09	1.447358e+01	2.607698e+02
1.270000e-06	2.127602e-06	4.058936e-09	1.472849e+01	2.662648e+02
1.280000e-06	2.163852e-06	4.134971e-09	1.497943e+01	2.713315e+02
1.290000e-06	2.199328e-06	4.208436e-09	1.522502e+01	2.760587e+02
1.300000e-06	2.233776e-06	4.276010e-09	1.546348e+01	2.805260e+02
1.310000e-06	2.267200e-06	4.335995e-09	1.569487e+01	2.847858e+02
1.320000e-06	2.299840e-06	4.392504e-09	1.592082e+01	2.888542e+02
1.330000e-06	2.331772e-06	4.448912e-09	1.614187e+01	2.927148e+02
1.340000e-06	2.362926e-06	4.505651e-09	1.635754e+01	2.963327e+02
1.350000e-06	2.393314e-06	4.556029e-09	1.656790e+01	2.996744e+02
1.360000e-06	2.422919e-06	4.598877e-09	1.677284e+01	3.027258e+02
1.370000e-06	2.451795e-06	4.638490e-09	1.697274e+01	3.055016e+02
1.380000e-06	2.479936e-06	4.676077e-09	1.716755e+01	3.080436e+02
1.390000e-06	2.507033e-06	4.710026e-09	1.735512e+01	3.104082e+02
1.400000e-06	2.532948e-06	4.740957e-09	1.753452e+01	3.126495e+02
1.410000e-06	2.557873e-06	4.771333e-09	1.770707e+01	3.148029e+02
1.420000e-06	2.581925e-06	4.802773e-09	1.787357e+01	3.168774e+02
1.430000e-06	2.605057e-06	4.834349e-09	1.803371e+01	3.188571e+02
1.440000e-06	2.627311e-06	4.862480e-09	1.818776e+01	3.207122e+02
1.450000e-06	2.648771e-06	4.885944e-09	1.833632e+01	3.224151e+02
1.460000e-06	2.669500e-06	4.905960e-09	1.847981e+01	3.239535e+02
1.470000e-06	2.689465e-06	4.925020e-09	1.861803e+01	3.253375e+02
1.480000e-06	2.708468e-06	4.943552e-09	1.874958e+01	3.265977e+02
1.490000e-06	2.726430e-06	4.961858e-09	1.887392e+01	3.277747e+02
1.500000e-06	2.743408e-06	4.979459e-09	1.899145e+01	3.289052e+02
1.510000e-06	2.759370e-06	4.997038e-09	1.910195e+01	3.300101e+02
1.520000e-06	2.774254e-06	5.014870e-09	1.920499e+01	3.310890e+02
1.530000e-06	2.788036e-06	5.030831e-09	1.930039e+01	3.321221e+02
1.540000e-06	2.800750e-06	5.044157e-09	1.938841e+01	3.330802e+02
1.550000e-06	2.812350e-06	5.054795e-09	1.946871e+01	3.339367e+02
1.560000e-06	2.822742e-06	5.063068e-09	1.954065e+01	3.346781e+02
1.570000e-06	2.831994e-06	5.071934e-09	1.960469e+01	3.353090e+02
1.580000e-06	2.840298e-06	5.083069e-09	1.966218e+01	3.358493e+02
1.590000e-06	2.847655e-06	5.093350e-09	1.971311e+01	3.363269e+02
1.600000e-06	2.854039e-06	5.100406e-09	1.975730e+01	3.367667e+02
1.610000e-06	2.859501e-06	5.105964e-09	1.979511e+01	3.371822e+02
1.620000e-06	2.864060e-06	5.111966e-09	1.982667e+01	3.375722e+02
1.630000e-06	2.867591e-06	5.116713e-09	1.985111e+01	3.379222e+02
1.640000e-06	2.869964e-06	5.120118e-09	1.986755e+01	3.382120e+02
1.650000e-06	2.871246e-06	5.123745e-09	1.987642e+01	3.384235e+02
1.660000e-06	2.871547e-06	5.128439e-09	1.987850e+01	3.385478e+02
1.670000e-06	2.870918e-06	5.131983e-09	1.987414e+01	3.385876e+02
1.680000e-06	2.869407e-06	5.131152e-09	1.986369e+01	3.385545e+02
1.690000e-06	2.867057e-06	5.127730e-09	1.984742e+01	3.384640e+02
1.700000e-06	2.863886e-06	5.126151e-09	1.982547e+01	3.383286e+02
1.710000e-06	2.859834e-06	5.126340e-09	1.979742e+01	3.381527e+02
1.720000e-06	2.854718e-06	5.120213e-09	1.976200e+01	3.379318e+02
1.730000e-06	2.848525e-06	5.089003e-09	1.971913e+01	3.376553e+02
1.740000e-06	2.841398e-06	5.091472e-09	1.966979e+01	3.373110e+02
1.750000e-06	2.833195e-06	5.144481e-09	1.961300e+01	3.368910e+02
1.760000e-06	2.823575e-06	5.171026e-09	1.954641e+01	3.363955e+02
1.770000e-06	2.812597e-06	5.029526e-09	1.947042e+01	3.358323e+02
1.780000e-06	2.800875e-06	4.997012e-09	1.938927e+01	3.352150e+02
1.790000e-06	2.788786e-06	5.135344e-09	1.930558e+01	3.345574e+02
1.800000e-06	2.775687e-06	5.099978e-09	1.921490e+01	3.338696e+02
1.810000e-06	2.761066e-06	4.946530e-09	1.911369e+01	3.331541e+02
1.820000e-06	2.745455e-06	5.012825e-09	1.900562e+01	3.324062e+02
1.830000e-06	2.729181e-06	5.175706e-09	1.889296e+01	3.316161e+02
1.840000e-06	2.711747e-06	5.001301e-09	1.877227e+01	3.307730e+02
1.850000e-06	2.693181e-06	4.943694e-09	1.864375e+01	3.298691e+02
1.860000e-06	2.673933e-06	5.141062e-09	1.851050e+01	3.289022e+02
1.870000e-06	2.653769e-06	4.999153e-09	1.837092e+01	3.278760e+02
1.880000e-06	2.632327e-06	4.878636e-09	1.822249e+01	3.267981e+02
1.890000e-06	2.609817e-06	5.056968e-09	1.806666e+01	3.256768e+02
1.900000e-06	2.586446e-06	4.985344e-09	1.790487e+01	3.245165e+02
1.910000e-06	2.562114e-06	4.867016e-09	1.773643e+01	3.233160e+02
1.920000e-06	2.536967e-06	4.941168e-09	1.756235e+01	3.220667e+02
1.930000e-06	2.511091e-06	4.920928e-09	1.738322e+01	3.207546e+02
1.940000e-06	2.484414e-06	4.855724e-09	1.719855e+01	3.193638e+02
1.950000e-06	2.456969e-06	4.882141e-09	1.700855e+01	3.178802e+02
1.960000e-06	2.428556e-06	4.822467e-09	1.681186e+01	3.162965e+02
1.970000e-06	2.398914e-06	4.790929e-09	1.660666e+01	3.146145e+02
1.980000e-06	2.368266e-06	4.823114e-09	1.639450e+01	3.128455e+02
1.990000e-06	2.336918e-06	4.717605e-09	1.617749e+01	3.110083e+02
2.000000e-06	2.304844e-06	4.714584e-09	1.595546e+01	3.091241e+02
2.010000e-06	2.271948e-06	4.736623e-09	1.572774e+01	3.072113e+02
2.020000e-06	2.238230e-06	4.635352e-09	1.549432e+01	3.052802e+02
2.030000e-06	2.203840e-06	4.647019e-09	1.525625e+01	3.033292e+02
2.040000e-06	2.168886e-06	4.641750e-09	1.501428e+01	3.013458e+02
2.050000e-06	2.133293e-06	4.528098e-09	1.476788e+01	2.993097e+02
2.060000e-06	2.096891e-06	4.526943e-09	1.451589e+01	2.972001e+02
2.070000e-06	2.059412e-06	4.527132e-09	1.425643e+01	2.950025e+02
2.080000e-06	2.020902e-06	4.466099e-09	1.398985e+01	2.927152e+02
2.090000e-06	1.981744e-06	4.441619e-09	1.371878e+01	2.903508e+02
2.100000e-06	1.942014e-06	4.392807e-09	1.344374e+01	2.879333e+02
2.110000e-06	1.901627e-06	4.363573e-09	1.316416e+01	2.854911e+02
2.120000e-06	1.860622e-06	4.326181e-09	1.288029e+01	2.830471e+02
2.130000e-06	1.819043e-06	4.265070e-09	1.259246e+01	2.806099e+02
2.140000e-06	1.776834e-06	4.246850e-09	1.230027e+01	2.781701e+02
2.150000e-06	1.734071e-06	4.222260e-09	1.200424e+01	2.757011e+02
2.160000e-06	1.690905e-06	4.181334e-09	1.170542e+01	2.731672e+02
2.170000e-06	1.647279e-06	4.130069e-09	1.140341e+01	2.705349e+02
2.180000e-06	1.603017e-06	4.080239e-09	1.109700e+01	2.677840e+02
2.190000e-06	1.558106e-06	4.043902e-09	1.078611e+01	2.649142e+02
2.200000e-06	1.512688e-06	4.002592e-09	1.047170e+01	2.619456e+02
2.210000e-06	1.466773e-06	3.958687e-09	1.015385e+01	2.589109e+02
2.220000e-06	1.420450e-06	3.918513e-09	9.833170e+00	2.558433e+02
2.230000e-06	1.373632e-06	3.860911e-09	9.509074e+00	2.527645e+02
2.240000e-06	1.326105e-06	3.819906e-09	9.180064e+00	2.496751e+02
2.250000e-06	1.277964e-06	3.772263e-09	8.846800e+00	2.465545e+02
2.260000e-06	1.229393e-06	3.707792e-09	8.510566e+00	2.433672e+02
2.270000e-06	1.180434e-06	3.671702e-09	8.171642e+00	2.400757e+02
2.280000e-06	1.131002e-06	3.626980e-09	7.829449e+00	2.366544e+02
2.290000e-06	1.081084e-06	3.574404e-09	7.483885e+00	2.330986e+02
2.300000e-06	1.030757e-06	3.512706e-09	7.135492e+00	2.294270e+02
2.310000e-06	9.800034e-07	3.448703e-09	6.784148e+00	2.256738e+02
2.320000e-06	9.288837e-07	3.396148e-09	6.430268e+00	2.218768e+02
2.330000e-06	8.775181e-07	3.337828e-09	6.074685e+00	2.180624e+02
2.340000e-06	8.258784e-07	3.279284e-09	5.717206e+00	2.142360e+02
2.350000e-06	7.738662e-07	3.223661e-09	5.357147e+00	2.103798e+02
2.360000e-06	7.213484e-07	3.165973e-09	4.993589e+00	2.064599e+02
2.370000e-06	6.683960e-07	3.107223e-09	4.627022e+00	2.024388e+02
2.380000e-06	6.149794e-07	3.044443e-09	4.257241e+00	1.982895e+02
2.390000e-06	5.611426e-07	2.978225e-09	3.884552e+00	1.940048e+02
2.400000e-06	5.070383e-07	2.915385e-09	3.510011e+00	1.895982e+02
2.410000e-06	4.527151e-07	2.850311e-09	3.133954e+00	1.850965e+02
2.420000e-06	3.982436e-07	2.786678e-09	2.756872e+00	1.805265e+02
2.430000e-06	3.435955e-07	2.717530e-09	2.378566e+00	1.759014e+02
2.440000e-06	2.888003e-07	2.641681e-09	1.999242e+00	1.712128e+02
2.450000e-06	2.339417e-07	2.567633e-09	1.619479e+00	1.664309e+02
2.460000e-06	1.790415e-07	2.494133e-09	1.239429e+00	1.615142e+02
2.470000e-06	1.241087e-07	2.421234e-09	8.591516e-01	1.564238e+02
2.480000e-06	6.917855e-08	2.340473e-09	4.788937e-01	1.511372e+02
2.490000e-06	1.421723e-08	2.256995e-09	9.841985e-02	1.456562e+02
2.500000e-06	-4.077087e-08	2.173807e-09	-2.822395e-01	1.400044e+02
2.510000e-06	-9.575546e-08	2.086313e-09	-6.628744e-01	1.342164e+02
2.520000e-06	-1.507390e-07	1.994344e-09	-1.043502e+00	1.283214e+02
2.530000e-06	-2.056677e-07	1.900596e-09	-1.423750e+00	1.223289e+02
2.540000e-06	-2.605215e-07	1.810705e-09	-1.803480e+00	1.162208e+02
2.550000e-06	-3.153376e-07	1.720215e-09	-2.182948e+00	1.099542e+02
2.560000e-06	-3.700862e-07	1.624024e-09	-2.561949e+00	1.034734e+02
2.570000e-06	-4.246987e-07	1.519643e-09	-2.940009e+00	9.672643e+01
2.580000e-06	-4.791161e-07	1.409564e-09	-3.316718e+00	8.968047e+01
2.590000e-06	-5.332482e-07	1.295231e-09	-3.691451e+00	8.232869e+01
2.600000e-06	-5.870587e-07	1.179486e-09	-4.063959e+00	7.468725e+01
2.610000e-06	-6.405674e-07	1.061442e-09	-4.434377e+00	6.678274e+01
2.620000e-06	-6.936654e-07	9.399941e-10	-4.801951e+00	5.863534e+01
2.630000e-06	-7.462766e-07	8.139425e-10	-5.166156e+00	5.024437e+01
2.640000e-06	-7.984484e-07	6.811764e-10	-5.527319e+00	4.158183e+01
2.650000e-06	-8.502010e-07	5.431407e-10	-5.885581e+00	3.259660e+01
2.660000e-06	-9.015956e-07	3.992067e-10	-6.241364e+00	2.322763e+01
2.670000e-06	-9.526621e-07	2.514841e-10	-6.594876e+00	1.342106e+01
2.680000e-06	-1.003451e-06	9.643687e-11	-6.946468e+00	3.144742e+00
2.690000e-06	-1.053924e-06	-6.781206e-11	-7.295866e+00	-7.605074e+00
2.700000e-06	-1.103957e-06	-2.382703e-10	-7.642223e+00	-1.880672e+01
2.710000e-06	-1.153541e-06	-4.110296e-10	-7.985475e+00	-3.042360e+01
2.720000e-06	-1.202682e-06	-5.894144e-10	-8.325661e+00	-4.241677e+01
2.730000e-06	-1.251280e-06	-7.781219e-10	-8.662081e+00	-5.475352e+01
2.740000e-06	-1.299202e-06	-9.747326e-10	-8.993825e+00	-6.740738e+01
2.750000e-06	-1.346382e-06	-1.174102e-09	-9.320432e+00	-8.034908e+01
2.760000e-06	-1.392903e-06	-1.375653e-09	-9.642479e+00	-9.353183e+01
2.770000e-06	-1.438942e-06	-1.582230e-09	-9.961189e+00	-1.068774e+02
2.780000e-06	-1.484586e-06	-1.789666e-09	-1.027716e+01	-1.202696e+02
2.790000e-06	-1.529867e-06	-1.994403e-09	-1.059062e+01	-1.335594e+02
2.800000e-06	-1.574752e-06	-2.191537e-09	-1.090134e+01	-1.465824e+02
2.810000e-06	-1.619111e-06	-2.380647e-09	-1.120842e+01	-1.591820e+02
2.820000e-06	-1.662873e-06	-2.566723e-09	-1.151137e+01	-1.712339e+02
2.830000e-06	-1.706142e-06	-2.745782e-09	-1.181090e+01	-1.826612e+02
2.840000e-06	-1.749018e-06	-2.911893e-09	-1.210771e+01	-1.934369e+02
2.850000e-06	-1.791437e-06	-3.065676e-09	-1.240136e+01	-2.035737e+02
2.860000e-06	-1.833284e-06	-3.212603e-09	-1.269105e+01	-2.131041e+02
2.870000e-06	-1.874518e-06	-3.352468e-09	-1.297650e+01	-2.220597e+02
2.880000e-06	-1.915080e-06	-3.482008e-09	-1.325728e+01	-2.304568e+02
2.890000e-06	-1.954933e-06	-3.600133e-09	-1.353317e+01	-2.382932e+02
2.900000e-06	-1.994215e-06	-3.710424e-09	-1.380510e+01	-2.455563e+02
2.910000e-06	-2.032977e-06	-3.814996e-09	-1.407344e+01	-2.522393e+02
2.920000e-06	-2.070964e-06	-3.912320e-09	-1.433641e+01	-2.583570e+02
2.930000e-06	-2.107989e-06	-3.999676e-09	-1.459271e+01	-2.639544e+02
2.940000e-06	-2.144035e-06	-4.077409e-09	-1.484225e+01	-2.691052e+02
