# Temperatura_=_17.33
# Concentracion g/m^3_=_13400.0
# C_Vs_to_Am_M_A/Vsm_=_65563218390.804596
# pendiente_HvsI_1/m_=_3716.3
# ordenada_HvsI_A/m_=_1297.0
# frecuencia_Hz_=_300847.9150791492

Tiempo_(s)	Campo_(V.s)	Magnetizacion_(V.s)	Campo_(kA/m)	Magnetizacion_(A/m)
0.000000e+00	-2.856909e-06	-5.169698e-09	-1.980442e+01	-3.379283e+02
1.000000e-08	-2.856557e-06	-5.168905e-09	-1.980198e+01	-3.379788e+02
2.000000e-08	-2.855382e-06	-5.161366e-09	-1.979384e+01	-3.379404e+02
3.000000e-08	-2.853138e-06	-5.154658e-09	-1.977828e+01	-3.378176e+02
4.000000e-08	-2.849742e-06	-5.151923e-09	-1.975475e+01	-3.376202e+02
5.000000e-08	-2.845408e-06	-5.150140e-09	-1.972470e+01	-3.373593e+02
6.000000e-08	-2.840231e-06	-5.147985e-09	-1.968881e+01	-3.370445e+02
7.000000e-08	-2.834152e-06	-5.153969e-09	-1.964667e+01	-3.366807e+02
8.000000e-08	-2.827071e-06	-5.164350e-09	-1.959758e+01	-3.362687e+02
9.000000e-08	-2.818900e-06	-5.129924e-09	-1.954094e+01	-3.358064e+02
1.000000e-07	-2.809495e-06	-5.072345e-09	-1.947575e+01	-3.352918e+02
1.100000e-07	-2.798750e-06	-5.090532e-09	-1.940126e+01	-3.347250e+02
1.200000e-07	-2.786904e-06	-5.172845e-09	-1.931915e+01	-3.341097e+02
1.300000e-07	-2.774224e-06	-5.120827e-09	-1.923125e+01	-3.334522e+02
1.400000e-07	-2.760653e-06	-4.982735e-09	-1.913716e+01	-3.327596e+02
1.500000e-07	-2.746135e-06	-5.079506e-09	-1.903653e+01	-3.320367e+02
1.600000e-07	-2.730601e-06	-5.152545e-09	-1.892885e+01	-3.312831e+02
1.700000e-07	-2.713766e-06	-5.014783e-09	-1.881214e+01	-3.304924e+02
1.800000e-07	-2.695685e-06	-5.010514e-09	-1.868680e+01	-3.296525e+02
1.900000e-07	-2.676835e-06	-5.105381e-09	-1.855613e+01	-3.287485e+02
2.000000e-07	-2.657263e-06	-4.998598e-09	-1.842046e+01	-3.277661e+02
2.100000e-07	-2.636781e-06	-4.928037e-09	-1.827847e+01	-3.266960e+02
2.200000e-07	-2.615472e-06	-5.042237e-09	-1.813076e+01	-3.255364e+02
2.300000e-07	-2.593355e-06	-4.981348e-09	-1.797744e+01	-3.242937e+02
2.400000e-07	-2.570308e-06	-4.886561e-09	-1.781767e+01	-3.229802e+02
2.500000e-07	-2.546357e-06	-4.956656e-09	-1.765165e+01	-3.216105e+02
2.600000e-07	-2.521611e-06	-4.927737e-09	-1.748010e+01	-3.201962e+02
2.700000e-07	-2.495994e-06	-4.844162e-09	-1.730252e+01	-3.187419e+02
2.800000e-07	-2.469296e-06	-4.862200e-09	-1.711745e+01	-3.172435e+02
2.900000e-07	-2.441511e-06	-4.821008e-09	-1.692484e+01	-3.156889e+02
3.000000e-07	-2.412816e-06	-4.798080e-09	-1.672592e+01	-3.140627e+02
3.100000e-07	-2.383328e-06	-4.804390e-09	-1.652150e+01	-3.123509e+02
3.200000e-07	-2.353085e-06	-4.741141e-09	-1.631186e+01	-3.105469e+02
3.300000e-07	-2.322055e-06	-4.733029e-09	-1.609676e+01	-3.086544e+02
3.400000e-07	-2.290277e-06	-4.734411e-09	-1.587647e+01	-3.066868e+02
3.500000e-07	-2.257864e-06	-4.645378e-09	-1.565178e+01	-3.046633e+02
3.600000e-07	-2.224798e-06	-4.625517e-09	-1.542256e+01	-3.026022e+02
3.700000e-07	-2.190836e-06	-4.640385e-09	-1.518713e+01	-3.005146e+02
3.800000e-07	-2.155764e-06	-4.554527e-09	-1.494401e+01	-2.984001e+02
3.900000e-07	-2.119705e-06	-4.544930e-09	-1.469404e+01	-2.962470e+02
4.000000e-07	-2.082975e-06	-4.557360e-09	-1.443943e+01	-2.940359e+02
4.100000e-07	-2.045681e-06	-4.475460e-09	-1.418090e+01	-2.917476e+02
4.200000e-07	-2.007667e-06	-4.421627e-09	-1.391738e+01	-2.893705e+02
4.300000e-07	-1.968843e-06	-4.415484e-09	-1.364825e+01	-2.869057e+02
4.400000e-07	-1.929291e-06	-4.367412e-09	-1.337407e+01	-2.843675e+02
4.500000e-07	-1.889169e-06	-4.320334e-09	-1.309594e+01	-2.817787e+02
4.600000e-07	-1.848621e-06	-4.292721e-09	-1.281486e+01	-2.791621e+02
4.700000e-07	-1.807596e-06	-4.252990e-09	-1.253046e+01	-2.765316e+02
4.800000e-07	-1.765771e-06	-4.214983e-09	-1.224053e+01	-2.738858e+02
4.900000e-07	-1.722922e-06	-4.161382e-09	-1.194349e+01	-2.712075e+02
5.000000e-07	-1.679167e-06	-4.110416e-09	-1.164018e+01	-2.684691e+02
5.100000e-07	-1.634839e-06	-4.074418e-09	-1.133289e+01	-2.656416e+02
5.200000e-07	-1.590118e-06	-4.040401e-09	-1.102288e+01	-2.627057e+02
5.300000e-07	-1.544928e-06	-3.990743e-09	-1.070962e+01	-2.596589e+02
5.400000e-07	-1.499189e-06	-3.947387e-09	-1.039255e+01	-2.565166e+02
5.500000e-07	-1.452869e-06	-3.893457e-09	-1.007146e+01	-2.533065e+02
5.600000e-07	-1.406042e-06	-3.830000e-09	-9.746843e+00	-2.500577e+02
5.700000e-07	-1.358745e-06	-3.789173e-09	-9.418977e+00	-2.467890e+02
5.800000e-07	-1.310961e-06	-3.741584e-09	-9.087735e+00	-2.435010e+02
5.900000e-07	-1.262758e-06	-3.685830e-09	-8.753582e+00	-2.401736e+02
6.000000e-07	-1.214201e-06	-3.643621e-09	-8.416984e+00	-2.367735e+02
6.100000e-07	-1.165251e-06	-3.597631e-09	-8.077655e+00	-2.332648e+02
6.200000e-07	-1.115789e-06	-3.525487e-09	-7.734780e+00	-2.296232e+02
6.300000e-07	-1.065593e-06	-3.457723e-09	-7.386816e+00	-2.258450e+02
6.400000e-07	-1.014681e-06	-3.402675e-09	-7.033890e+00	-2.219494e+02
6.500000e-07	-9.632773e-07	-3.346700e-09	-6.677550e+00	-2.179715e+02
6.600000e-07	-9.114622e-07	-3.285280e-09	-6.318362e+00	-2.139505e+02
6.700000e-07	-8.593006e-07	-3.221220e-09	-5.956772e+00	-2.099148e+02
6.800000e-07	-8.068545e-07	-3.161620e-09	-5.593210e+00	-2.058717e+02
6.900000e-07	-7.541597e-07	-3.100079e-09	-5.227923e+00	-2.018044e+02
7.000000e-07	-7.011899e-07	-3.035418e-09	-4.860730e+00	-1.976785e+02
7.100000e-07	-6.479629e-07	-2.965715e-09	-4.491754e+00	-1.934545e+02
7.200000e-07	-5.945454e-07	-2.897994e-09	-4.121458e+00	-1.891023e+02
7.300000e-07	-5.409057e-07	-2.829460e-09	-3.749621e+00	-1.846116e+02
7.400000e-07	-4.870473e-07	-2.758229e-09	-3.376269e+00	-1.799946e+02
7.500000e-07	-4.329734e-07	-2.682950e-09	-3.001422e+00	-1.752801e+02
7.600000e-07	-3.787320e-07	-2.604619e-09	-2.625414e+00	-1.704996e+02
7.700000e-07	-3.244093e-07	-2.528855e-09	-2.248843e+00	-1.656739e+02
7.800000e-07	-2.700195e-07	-2.455301e-09	-1.871807e+00	-1.608021e+02
7.900000e-07	-2.155595e-07	-2.382319e-09	-1.494283e+00	-1.558600e+02
8.000000e-07	-1.610632e-07	-2.304481e-09	-1.116509e+00	-1.508071e+02
8.100000e-07	-1.065609e-07	-2.224832e-09	-7.386924e-01	-1.456001e+02
8.200000e-07	-5.202849e-08	-2.141277e-09	-3.606676e-01	-1.402076e+02
8.300000e-07	2.524178e-09	-2.053869e-09	1.749790e-02	-1.346208e+02
8.400000e-07	5.705484e-08	-1.962010e-09	3.955108e-01	-1.288545e+02
8.500000e-07	1.115654e-07	-1.868967e-09	7.733841e-01	-1.229404e+02
8.600000e-07	1.660894e-07	-1.777226e-09	1.151351e+00	-1.169124e+02
8.700000e-07	2.205760e-07	-1.684988e-09	1.529059e+00	-1.107921e+02
8.800000e-07	2.750091e-07	-1.593951e-09	1.906395e+00	-1.045787e+02
8.900000e-07	3.293774e-07	-1.500251e-09	2.283282e+00	-9.824717e+01
9.000000e-07	3.836414e-07	-1.399484e-09	2.659447e+00	-9.175559e+01
9.100000e-07	4.377683e-07	-1.290905e-09	3.034661e+00	-8.505883e+01
9.200000e-07	4.917341e-07	-1.182362e-09	3.408758e+00	-7.812231e+01
9.300000e-07	5.455386e-07	-1.072337e-09	3.781737e+00	-7.093110e+01
9.400000e-07	5.991070e-07	-9.577169e-10	4.153080e+00	-6.349051e+01
9.500000e-07	6.524110e-07	-8.401729e-10	4.522589e+00	-5.581808e+01
9.600000e-07	7.054456e-07	-7.209057e-10	4.890231e+00	-4.793043e+01
9.700000e-07	7.581947e-07	-6.008667e-10	5.255894e+00	-3.983029e+01
9.800000e-07	8.107395e-07	-4.749428e-10	5.620141e+00	-3.149914e+01
9.900000e-07	8.630644e-07	-3.411345e-10	5.982863e+00	-2.289845e+01
1.000000e-06	9.150296e-07	-1.994121e-10	6.343091e+00	-1.397932e+01
1.010000e-06	9.665698e-07	-5.270908e-11	6.700374e+00	-4.696758e+00
1.020000e-06	1.017625e-06	9.647878e-11	7.054297e+00	4.976744e+00
1.030000e-06	1.068034e-06	2.486430e-10	7.403738e+00	1.504351e+01
1.040000e-06	1.117724e-06	4.082875e-10	7.748196e+00	2.548145e+01
1.050000e-06	1.166812e-06	5.746585e-10	8.088473e+00	3.625249e+01
1.060000e-06	1.215523e-06	7.421022e-10	8.426149e+00	4.731471e+01
1.070000e-06	1.263999e-06	9.132023e-10	8.762190e+00	5.863285e+01
1.080000e-06	1.312184e-06	1.091183e-09	9.096210e+00	7.018229e+01
1.090000e-06	1.359898e-06	1.273984e-09	9.426973e+00	8.194483e+01
1.100000e-06	1.407086e-06	1.455864e-09	9.754081e+00	9.389763e+01
1.110000e-06	1.453790e-06	1.638138e-09	1.007784e+01	1.060000e+02
1.120000e-06	1.499969e-06	1.824749e-09	1.039796e+01	1.181837e+02
1.130000e-06	1.545571e-06	2.011518e-09	1.071408e+01	1.303517e+02
1.140000e-06	1.590652e-06	2.192784e-09	1.102658e+01	1.423864e+02
1.150000e-06	1.635350e-06	2.369952e-09	1.133644e+01	1.541660e+02
1.160000e-06	1.679686e-06	2.544509e-09	1.164378e+01	1.655829e+02
1.170000e-06	1.723569e-06	2.714457e-09	1.194798e+01	1.765589e+02
1.180000e-06	1.766707e-06	2.876168e-09	1.224702e+01	1.870510e+02
1.190000e-06	1.808795e-06	3.026890e-09	1.253878e+01	1.970475e+02
1.200000e-06	1.849991e-06	3.170021e-09	1.282435e+01	2.065555e+02
1.210000e-06	1.890608e-06	3.308094e-09	1.310591e+01	2.155855e+02
1.220000e-06	1.930712e-06	3.440504e-09	1.338392e+01	2.241388e+02
1.230000e-06	1.970261e-06	3.561284e-09	1.365808e+01	2.322032e+02
1.240000e-06	2.009157e-06	3.669323e-09	1.392771e+01	2.397580e+02
1.250000e-06	2.047302e-06	3.772246e-09	1.419213e+01	2.467853e+02
1.260000e-06	2.084684e-06	3.873067e-09	1.445127e+01	2.532848e+02
1.270000e-06	2.121450e-06	3.967161e-09	1.470614e+01	2.592828e+02
1.280000e-06	2.157694e-06	4.050888e-09	1.495738e+01	2.648337e+02
1.290000e-06	2.193186e-06	4.128507e-09	1.520342e+01	2.700114e+02
1.300000e-06	2.227617e-06	4.203444e-09	1.544210e+01	2.748926e+02
1.310000e-06	2.261021e-06	4.274698e-09	1.567366e+01	2.795395e+02
1.320000e-06	2.293666e-06	4.339637e-09	1.589996e+01	2.839864e+02
1.330000e-06	2.325658e-06	4.398964e-09	1.612173e+01	2.882351e+02
1.340000e-06	2.356916e-06	4.457885e-09	1.633842e+01	2.922614e+02
1.350000e-06	2.387371e-06	4.517369e-09	1.654953e+01	2.960299e+02
1.360000e-06	2.417008e-06	4.570912e-09	1.675498e+01	2.995115e+02
1.370000e-06	2.445904e-06	4.615116e-09	1.695529e+01	3.026977e+02
1.380000e-06	2.474123e-06	4.655723e-09	1.715091e+01	3.056071e+02
1.390000e-06	2.501458e-06	4.696290e-09	1.734040e+01	3.082815e+02
1.400000e-06	2.527596e-06	4.734308e-09	1.752159e+01	3.107743e+02
1.410000e-06	2.552557e-06	4.766680e-09	1.769462e+01	3.131354e+02
1.420000e-06	2.576602e-06	4.796810e-09	1.786130e+01	3.153972e+02
1.430000e-06	2.599809e-06	4.829942e-09	1.802218e+01	3.175690e+02
1.440000e-06	2.622115e-06	4.864807e-09	1.817681e+01	3.196381e+02
1.450000e-06	2.643581e-06	4.894996e-09	1.832561e+01	3.215796e+02
1.460000e-06	2.664323e-06	4.916824e-09	1.846940e+01	3.233693e+02
1.470000e-06	2.684268e-06	4.935466e-09	1.860766e+01	3.249946e+02
1.480000e-06	2.703246e-06	4.956612e-09	1.873921e+01	3.264610e+02
1.490000e-06	2.721232e-06	4.978955e-09	1.886389e+01	3.277911e+02
1.500000e-06	2.738258e-06	4.997889e-09	1.898193e+01	3.290167e+02
1.510000e-06	2.754275e-06	5.015209e-09	1.909296e+01	3.301688e+02
1.520000e-06	2.769206e-06	5.033472e-09	1.919646e+01	3.312680e+02
1.530000e-06	2.783096e-06	5.050681e-09	1.929274e+01	3.323189e+02
1.540000e-06	2.796012e-06	5.064379e-09	1.938228e+01	3.333117e+02
1.550000e-06	2.807823e-06	5.074494e-09	1.946416e+01	3.342272e+02
1.560000e-06	2.818313e-06	5.083996e-09	1.953687e+01	3.350465e+02
1.570000e-06	2.827543e-06	5.095733e-09	1.960086e+01	3.357583e+02
1.580000e-06	2.835809e-06	5.108896e-09	1.965816e+01	3.363640e+02
1.590000e-06	2.843202e-06	5.120182e-09	1.970941e+01	3.368769e+02
1.600000e-06	2.849644e-06	5.128386e-09	1.975406e+01	3.373177e+02
1.610000e-06	2.855158e-06	5.133940e-09	1.979228e+01	3.377072e+02
1.620000e-06	2.859820e-06	5.138508e-09	1.982461e+01	3.380596e+02
1.630000e-06	2.863497e-06	5.142441e-09	1.985009e+01	3.383789e+02
1.640000e-06	2.865958e-06	5.146340e-09	1.986715e+01	3.386578e+02
1.650000e-06	2.867271e-06	5.151454e-09	1.987626e+01	3.388819e+02
1.660000e-06	2.867595e-06	5.154805e-09	1.987850e+01	3.390352e+02
1.670000e-06	2.867005e-06	5.154684e-09	1.987441e+01	3.391049e+02
1.680000e-06	2.865558e-06	5.153754e-09	1.986438e+01	3.390859e+02
1.690000e-06	2.863247e-06	5.153228e-09	1.984836e+01	3.389809e+02
1.700000e-06	2.860131e-06	5.154308e-09	1.982676e+01	3.387988e+02
1.710000e-06	2.856214e-06	5.152513e-09	1.979960e+01	3.385511e+02
1.720000e-06	2.851284e-06	5.142752e-09	1.976543e+01	3.382476e+02
1.730000e-06	2.845202e-06	5.116435e-09	1.972327e+01	3.378945e+02
1.740000e-06	2.838134e-06	5.101216e-09	1.967427e+01	3.374933e+02
1.750000e-06	2.830062e-06	5.146318e-09	1.961832e+01	3.370424e+02
1.760000e-06	2.820593e-06	5.181677e-09	1.955268e+01	3.365395e+02
1.770000e-06	2.809670e-06	5.082737e-09	1.947696e+01	3.359841e+02
1.780000e-06	2.798022e-06	5.029357e-09	1.939621e+01	3.353791e+02
1.790000e-06	2.786112e-06	5.117173e-09	1.931365e+01	3.347304e+02
1.800000e-06	2.773238e-06	5.156241e-09	1.922441e+01	3.340453e+02
1.810000e-06	2.758797e-06	4.984180e-09	1.912430e+01	3.333290e+02
1.820000e-06	2.743278e-06	4.990060e-09	1.901672e+01	3.325827e+02
1.830000e-06	2.727071e-06	5.167084e-09	1.890438e+01	3.318012e+02
1.840000e-06	2.709772e-06	5.043233e-09	1.878446e+01	3.309735e+02
1.850000e-06	2.691290e-06	4.943397e-09	1.865634e+01	3.300849e+02
1.860000e-06	2.672012e-06	5.103596e-09	1.852270e+01	3.291207e+02
1.870000e-06	2.651874e-06	5.048521e-09	1.838310e+01	3.280702e+02
1.880000e-06	2.630593e-06	4.880356e-09	1.823558e+01	3.269299e+02
1.890000e-06	2.608259e-06	5.010030e-09	1.808075e+01	3.257045e+02
1.900000e-06	2.584955e-06	5.017451e-09	1.791921e+01	3.244054e+02
1.910000e-06	2.560686e-06	4.866455e-09	1.775098e+01	3.230470e+02
1.920000e-06	2.535666e-06	4.922330e-09	1.757753e+01	3.216419e+02
1.930000e-06	2.509901e-06	4.935557e-09	1.739892e+01	3.201966e+02
1.940000e-06	2.483274e-06	4.827504e-09	1.721435e+01	3.187088e+02
1.950000e-06	2.455923e-06	4.869545e-09	1.702474e+01	3.171680e+02
1.960000e-06	2.427673e-06	4.822579e-09	1.682891e+01	3.155588e+02
1.970000e-06	2.398213e-06	4.755329e-09	1.662469e+01	3.138666e+02
1.980000e-06	2.367704e-06	4.813113e-09	1.641320e+01	3.120828e+02
1.990000e-06	2.336445e-06	4.726042e-09	1.619651e+01	3.102088e+02
2.000000e-06	2.304509e-06	4.677182e-09	1.597513e+01	3.082562e+02
2.010000e-06	2.271845e-06	4.734725e-09	1.574869e+01	3.062434e+02
2.020000e-06	2.238343e-06	4.630428e-09	1.551646e+01	3.041895e+02
2.030000e-06	2.204045e-06	4.589188e-09	1.527869e+01	3.021075e+02
2.040000e-06	2.169158e-06	4.631454e-09	1.503686e+01	2.999999e+02
2.050000e-06	2.133644e-06	4.512356e-09	1.479067e+01	2.978569e+02
2.060000e-06	2.097306e-06	4.475185e-09	1.453877e+01	2.956603e+02
2.070000e-06	2.059984e-06	4.509325e-09	1.428005e+01	2.933903e+02
2.080000e-06	2.021676e-06	4.441513e-09	1.401449e+01	2.910330e+02
2.090000e-06	1.982637e-06	4.400501e-09	1.374387e+01	2.885866e+02
2.100000e-06	1.943026e-06	4.369609e-09	1.346928e+01	2.860628e+02
2.110000e-06	1.902804e-06	4.320371e-09	1.319046e+01	2.834832e+02
2.120000e-06	1.861917e-06	4.280787e-09	1.290702e+01	2.808713e+02
2.130000e-06	1.820454e-06	4.220940e-09	1.261960e+01	2.782437e+02
2.140000e-06	1.778469e-06	4.192673e-09	1.232855e+01	2.756025e+02
2.150000e-06	1.735841e-06	4.178759e-09	1.203305e+01	2.729337e+02
2.160000e-06	1.692683e-06	4.124868e-09	1.173387e+01	2.702111e+02
2.170000e-06	1.649074e-06	4.072547e-09	1.143157e+01	2.674052e+02
2.180000e-06	1.604850e-06	4.024994e-09	1.112500e+01	2.644938e+02
2.190000e-06	1.560010e-06	3.978763e-09	1.081417e+01	2.614704e+02
2.200000e-06	1.514636e-06	3.933101e-09	1.049964e+01	2.583470e+02
2.210000e-06	1.468765e-06	3.890727e-09	1.018165e+01	2.551491e+02
2.220000e-06	1.422403e-06	3.850887e-09	9.860266e+00	2.519069e+02
2.230000e-06	1.375599e-06	3.785182e-09	9.535816e+00	2.486422e+02
2.240000e-06	1.328344e-06	3.737131e-09	9.208237e+00	2.453597e+02
2.250000e-06	1.280472e-06	3.690781e-09	8.876378e+00	2.420437e+02
2.260000e-06	1.231985e-06	3.621853e-09	8.540263e+00	2.386626e+02
2.270000e-06	1.183060e-06	3.579397e-09	8.201107e+00	2.351802e+02
2.280000e-06	1.133725e-06	3.540740e-09	7.859112e+00	2.315686e+02
2.290000e-06	1.083957e-06	3.482621e-09	7.514114e+00	2.278192e+02
2.300000e-06	1.033787e-06	3.417928e-09	7.166331e+00	2.239465e+02
2.310000e-06	9.831430e-07	3.349458e-09	6.815261e+00	2.199833e+02
2.320000e-06	9.321465e-07	3.288129e-09	6.461748e+00	2.159690e+02
2.330000e-06	8.809076e-07	3.227732e-09	6.106554e+00	2.119354e+02
2.340000e-06	8.293634e-07	3.165247e-09	5.749243e+00	2.078949e+02
2.350000e-06	7.774751e-07	3.112084e-09	5.389548e+00	2.038356e+02
2.360000e-06	7.251620e-07	3.052996e-09	5.026907e+00	1.997260e+02
2.370000e-06	6.723977e-07	2.988420e-09	4.661139e+00	1.955265e+02
2.380000e-06	6.192436e-07	2.920475e-09	4.292668e+00	1.912038e+02
2.390000e-06	5.657694e-07	2.849510e-09	3.921979e+00	1.867429e+02
2.400000e-06	5.119989e-07	2.782406e-09	3.549236e+00	1.821513e+02
2.410000e-06	4.578849e-07	2.713676e-09	3.174112e+00	1.774553e+02
2.420000e-06	4.034717e-07	2.649107e-09	2.796913e+00	1.726870e+02
2.430000e-06	3.489049e-07	2.580855e-09	2.418649e+00	1.678706e+02
2.440000e-06	2.941916e-07	2.502698e-09	2.039370e+00	1.630104e+02
2.450000e-06	2.393577e-07	2.425187e-09	1.659255e+00	1.580868e+02
2.460000e-06	1.844359e-07	2.350801e-09	1.278531e+00	1.530618e+02
2.470000e-06	1.294282e-07	2.274077e-09	8.972112e-01	1.478915e+02
2.480000e-06	7.438793e-08	2.189992e-09	5.156658e-01	1.425407e+02
2.490000e-06	1.937829e-08	2.103482e-09	1.343325e-01	1.369954e+02
2.500000e-06	-3.560244e-08	2.021170e-09	-2.468003e-01	1.312658e+02
2.510000e-06	-9.059948e-08	1.935646e-09	-6.280461e-01	1.253807e+02
2.520000e-06	-1.455924e-07	1.842465e-09	-1.009263e+00	1.193750e+02
2.530000e-06	-2.005273e-07	1.749242e-09	-1.390078e+00	1.132741e+02
2.540000e-06	-2.553927e-07	1.656269e-09	-1.770412e+00	1.070824e+02
2.550000e-06	-3.101913e-07	1.561549e-09	-2.150283e+00	1.007797e+02
2.560000e-06	-3.648895e-07	1.463436e-09	-2.529456e+00	9.432673e+01
2.570000e-06	-4.193879e-07	1.360987e-09	-2.907245e+00	8.767779e+01
2.580000e-06	-4.736528e-07	1.256296e-09	-3.283416e+00	8.079503e+01
2.590000e-06	-5.276823e-07	1.150012e-09	-3.657955e+00	7.365897e+01
2.600000e-06	-5.813888e-07	1.041345e-09	-4.030255e+00	6.627097e+01
2.610000e-06	-6.346935e-07	9.266608e-10	-4.399769e+00	5.864696e+01
2.620000e-06	-6.875882e-07	8.063942e-10	-4.766442e+00	5.080495e+01
2.630000e-06	-7.400595e-07	6.838737e-10	-5.130179e+00	4.275152e+01
2.640000e-06	-7.920397e-07	5.593118e-10	-5.490511e+00	3.447293e+01
2.650000e-06	-8.436264e-07	4.285135e-10	-5.848116e+00	2.593436e+01
2.660000e-06	-8.949476e-07	2.918690e-10	-6.203881e+00	1.708800e+01
2.670000e-06	-9.460478e-07	1.538015e-10	-6.558113e+00	7.886789e+00
2.680000e-06	-9.968943e-07	1.234413e-11	-6.910587e+00	-1.701447e+00
2.690000e-06	-1.047332e-06	-1.381878e-10	-7.260228e+00	-1.168466e+01
2.700000e-06	-1.097297e-06	-2.979779e-10	-7.606590e+00	-2.204551e+01
2.710000e-06	-1.146809e-06	-4.610677e-10	-7.949816e+00	-3.274836e+01
2.720000e-06	-1.195899e-06	-6.269298e-10	-8.290114e+00	-4.375112e+01
2.730000e-06	-1.244589e-06	-7.971293e-10	-8.627633e+00	-5.501645e+01
2.740000e-06	-1.292671e-06	-9.722262e-10	-8.960945e+00	-6.651755e+01
2.750000e-06	-1.339902e-06	-1.150683e-09	-9.288358e+00	-7.823560e+01
2.760000e-06	-1.386474e-06	-1.333234e-09	-9.611199e+00	-9.014987e+01
2.770000e-06	-1.432521e-06	-1.520021e-09	-9.930402e+00	-1.022245e+02
2.780000e-06	-1.478116e-06	-1.707681e-09	-1.024647e+01	-1.143976e+02
2.790000e-06	-1.523432e-06	-1.894732e-09	-1.056060e+01	-1.265780e+02
2.800000e-06	-1.568320e-06	-2.077371e-09	-1.087177e+01	-1.386512e+02
2.810000e-06	-1.612629e-06	-2.255126e-09	-1.117893e+01	-1.504949e+02
2.820000e-06	-1.656395e-06	-2.430113e-09	-1.148232e+01	-1.619970e+02
2.830000e-06	-1.699730e-06	-2.601460e-09	-1.178272e+01	-1.730719e+02
2.840000e-06	-1.742661e-06	-2.764946e-09	-1.208033e+01	-1.836692e+02
2.850000e-06	-1.785078e-06	-2.919686e-09	-1.237437e+01	-1.937713e+02
2.860000e-06	-1.826870e-06	-3.068855e-09	-1.266408e+01	-2.033826e+02
2.870000e-06	-1.868037e-06	-3.211798e-09	-1.294945e+01	-2.125140e+02
2.880000e-06	-1.908591e-06	-3.344793e-09	-1.323057e+01	-2.211697e+02
2.890000e-06	-1.948534e-06	-3.467275e-09	-1.350746e+01	-2.293401e+02
2.900000e-06	-1.987921e-06	-3.583607e-09	-1.378050e+01	-2.370055e+02
2.910000e-06	-2.026698e-06	-3.695843e-09	-1.404931e+01	-2.441463e+02
2.920000e-06	-2.064662e-06	-3.801422e-09	-1.431248e+01	-2.507572e+02
2.930000e-06	-2.101645e-06	-3.896159e-09	-1.456885e+01	-2.568586e+02
2.940000e-06	-2.137679e-06	-3.982114e-09	-1.481864e+01	-2.624992e+02
