# Temperatura_=_23.93
# Concentracion g/m^3_=_13400.0
# C_Vs_to_Am_M_A/Vsm_=_65563218390.804596
# pendiente_HvsI_1/m_=_3716.3
# ordenada_HvsI_A/m_=_1297.0
# frecuencia_Hz_=_300838.8832647462

Tiempo_(s)	Campo_(V.s)	Magnetizacion_(V.s)	Campo_(kA/m)	Magnetizacion_(A/m)
0.000000e+00	-2.858214e-06	-5.178070e-09	-1.980068e+01	-3.387731e+02
1.000000e-08	-2.857172e-06	-5.175074e-09	-1.979346e+01	-3.387937e+02
2.000000e-08	-2.855065e-06	-5.172892e-09	-1.977887e+01	-3.387454e+02
3.000000e-08	-2.851650e-06	-5.170434e-09	-1.975521e+01	-3.386209e+02
4.000000e-08	-2.847215e-06	-5.166316e-09	-1.972448e+01	-3.384189e+02
5.000000e-08	-2.842056e-06	-5.164207e-09	-1.968875e+01	-3.381446e+02
6.000000e-08	-2.836069e-06	-5.171660e-09	-1.964727e+01	-3.378077e+02
7.000000e-08	-2.829061e-06	-5.176027e-09	-1.959872e+01	-3.374194e+02
8.000000e-08	-2.821002e-06	-5.153317e-09	-1.954289e+01	-3.369889e+02
9.000000e-08	-2.811690e-06	-5.098434e-09	-1.947838e+01	-3.365210e+02
1.000000e-07	-2.800952e-06	-5.105577e-09	-1.940399e+01	-3.360153e+02
1.100000e-07	-2.789104e-06	-5.167550e-09	-1.932191e+01	-3.354675e+02
1.200000e-07	-2.776507e-06	-5.149709e-09	-1.923465e+01	-3.348715e+02
1.300000e-07	-2.763002e-06	-5.061382e-09	-1.914109e+01	-3.342225e+02
1.400000e-07	-2.748488e-06	-5.063538e-09	-1.904054e+01	-3.335190e+02
1.500000e-07	-2.732934e-06	-5.159847e-09	-1.893279e+01	-3.327634e+02
1.600000e-07	-2.716028e-06	-5.074882e-09	-1.881567e+01	-3.319605e+02
1.700000e-07	-2.697915e-06	-5.010542e-09	-1.869019e+01	-3.311156e+02
1.800000e-07	-2.679131e-06	-5.086133e-09	-1.856006e+01	-3.302312e+02
1.900000e-07	-2.659638e-06	-5.044574e-09	-1.842502e+01	-3.293057e+02
2.000000e-07	-2.639171e-06	-4.968290e-09	-1.828323e+01	-3.283327e+02
2.100000e-07	-2.617870e-06	-5.010370e-09	-1.813566e+01	-3.273020e+02
2.200000e-07	-2.595806e-06	-5.028740e-09	-1.798282e+01	-3.262031e+02
2.300000e-07	-2.572809e-06	-4.944754e-09	-1.782350e+01	-3.250276e+02
2.400000e-07	-2.548873e-06	-4.933984e-09	-1.765768e+01	-3.237720e+02
2.500000e-07	-2.524128e-06	-4.956961e-09	-1.748625e+01	-3.224385e+02
2.600000e-07	-2.498505e-06	-4.903747e-09	-1.730875e+01	-3.210338e+02
2.700000e-07	-2.471813e-06	-4.861469e-09	-1.712383e+01	-3.195671e+02
2.800000e-07	-2.444034e-06	-4.868071e-09	-1.693139e+01	-3.180466e+02
2.900000e-07	-2.415272e-06	-4.833281e-09	-1.673214e+01	-3.164771e+02
3.000000e-07	-2.385679e-06	-4.816804e-09	-1.652713e+01	-3.148594e+02
3.100000e-07	-2.355420e-06	-4.789191e-09	-1.631750e+01	-3.131902e+02
3.200000e-07	-2.324453e-06	-4.767407e-09	-1.610298e+01	-3.114643e+02
3.300000e-07	-2.292701e-06	-4.750255e-09	-1.588301e+01	-3.096772e+02
3.400000e-07	-2.260292e-06	-4.695666e-09	-1.565849e+01	-3.078268e+02
3.500000e-07	-2.227320e-06	-4.677289e-09	-1.543007e+01	-3.059147e+02
3.600000e-07	-2.193521e-06	-4.664933e-09	-1.519593e+01	-3.039447e+02
3.700000e-07	-2.158535e-06	-4.615749e-09	-1.495356e+01	-3.019217e+02
3.800000e-07	-2.122499e-06	-4.588013e-09	-1.470391e+01	-2.998491e+02
3.900000e-07	-2.085805e-06	-4.595422e-09	-1.444971e+01	-2.977281e+02
4.000000e-07	-2.048484e-06	-4.530544e-09	-1.419117e+01	-2.955568e+02
4.100000e-07	-2.010389e-06	-4.471300e-09	-1.392725e+01	-2.933324e+02
4.200000e-07	-1.971543e-06	-4.455313e-09	-1.365814e+01	-2.910521e+02
4.300000e-07	-1.932005e-06	-4.428106e-09	-1.338424e+01	-2.887159e+02
4.400000e-07	-1.891862e-06	-4.385310e-09	-1.310614e+01	-2.863268e+02
4.500000e-07	-1.851299e-06	-4.348877e-09	-1.282513e+01	-2.838898e+02
4.600000e-07	-1.810265e-06	-4.316684e-09	-1.254087e+01	-2.814100e+02
4.700000e-07	-1.768499e-06	-4.276520e-09	-1.225153e+01	-2.788896e+02
4.800000e-07	-1.725743e-06	-4.232149e-09	-1.195533e+01	-2.763262e+02
4.900000e-07	-1.681981e-06	-4.179616e-09	-1.165216e+01	-2.737121e+02
5.000000e-07	-1.637592e-06	-4.146461e-09	-1.134465e+01	-2.710364e+02
5.100000e-07	-1.592836e-06	-4.110719e-09	-1.103460e+01	-2.682882e+02
5.200000e-07	-1.547653e-06	-4.074745e-09	-1.072158e+01	-2.654604e+02
5.300000e-07	-1.501896e-06	-4.029969e-09	-1.040460e+01	-2.625530e+02
5.400000e-07	-1.455544e-06	-3.972526e-09	-1.008349e+01	-2.595729e+02
5.500000e-07	-1.408680e-06	-3.919500e-09	-9.758830e+00	-2.565320e+02
5.600000e-07	-1.361341e-06	-3.881547e-09	-9.430883e+00	-2.534427e+02
5.700000e-07	-1.313554e-06	-3.840926e-09	-9.099833e+00	-2.503128e+02
5.800000e-07	-1.265353e-06	-3.783984e-09	-8.765909e+00	-2.471419e+02
5.900000e-07	-1.216793e-06	-3.741284e-09	-8.429507e+00	-2.439198e+02
6.000000e-07	-1.167804e-06	-3.697319e-09	-8.090128e+00	-2.406295e+02
6.100000e-07	-1.118215e-06	-3.639271e-09	-7.746594e+00	-2.372520e+02
6.200000e-07	-1.067902e-06	-3.575481e-09	-7.398045e+00	-2.337724e+02
6.300000e-07	-1.016988e-06	-3.522260e-09	-7.045328e+00	-2.301853e+02
6.400000e-07	-9.656378e-07	-3.472956e-09	-6.689592e+00	-2.264966e+02
6.500000e-07	-9.138298e-07	-3.417820e-09	-6.330685e+00	-2.227211e+02
6.600000e-07	-8.616447e-07	-3.358169e-09	-5.969166e+00	-2.188782e+02
6.700000e-07	-8.091901e-07	-3.293781e-09	-5.605779e+00	-2.149839e+02
6.800000e-07	-7.564730e-07	-3.231928e-09	-5.240573e+00	-2.110453e+02
6.900000e-07	-7.034898e-07	-3.169490e-09	-4.873525e+00	-2.070574e+02
7.000000e-07	-6.502767e-07	-3.108739e-09	-4.504884e+00	-2.030042e+02
7.100000e-07	-5.967833e-07	-3.043337e-09	-4.134301e+00	-1.988636e+02
7.200000e-07	-5.430511e-07	-2.978088e-09	-3.762063e+00	-1.946142e+02
7.300000e-07	-4.891407e-07	-2.912223e-09	-3.388591e+00	-1.902422e+02
7.400000e-07	-4.350315e-07	-2.841155e-09	-3.013742e+00	-1.857448e+02
7.500000e-07	-3.807567e-07	-2.765337e-09	-2.637746e+00	-1.811296e+02
7.600000e-07	-3.263505e-07	-2.687538e-09	-2.260839e+00	-1.764103e+02
7.700000e-07	-2.719118e-07	-2.616255e-09	-1.883707e+00	-1.716000e+02
7.800000e-07	-2.174592e-07	-2.545559e-09	-1.506479e+00	-1.667043e+02
7.900000e-07	-1.629387e-07	-2.472172e-09	-1.128781e+00	-1.617175e+02
8.000000e-07	-1.083812e-07	-2.392900e-09	-7.508260e-01	-1.566224e+02
8.100000e-07	-5.380843e-08	-2.310914e-09	-3.727655e-01	-1.513949e+02
8.200000e-07	8.106117e-10	-2.225811e-09	5.615627e-03	-1.460103e+02
8.300000e-07	5.544645e-08	-2.137451e-09	3.841131e-01	-1.404500e+02
8.400000e-07	1.100356e-07	-2.048077e-09	7.622873e-01	-1.347060e+02
8.500000e-07	1.646007e-07	-1.959195e-09	1.140294e+00	-1.287806e+02
8.600000e-07	2.191546e-07	-1.870494e-09	1.518224e+00	-1.226832e+02
8.700000e-07	2.736400e-07	-1.777165e-09	1.895680e+00	-1.164227e+02
8.800000e-07	3.280642e-07	-1.680495e-09	2.272711e+00	-1.100015e+02
8.900000e-07	3.823889e-07	-1.575958e-09	2.649053e+00	-1.034101e+02
9.000000e-07	4.365469e-07	-1.468493e-09	3.024240e+00	-9.662652e+01
9.100000e-07	4.905542e-07	-1.361905e-09	3.398383e+00	-8.961935e+01
9.200000e-07	5.443912e-07	-1.252807e-09	3.771347e+00	-8.235406e+01
9.300000e-07	5.980260e-07	-1.134529e-09	4.142910e+00	-7.479963e+01
9.400000e-07	6.513890e-07	-1.009411e-09	4.512589e+00	-6.693348e+01
9.500000e-07	7.044758e-07	-8.846632e-10	4.880356e+00	-5.874289e+01
9.600000e-07	7.573151e-07	-7.577797e-10	5.246407e+00	-5.022252e+01
9.700000e-07	8.099156e-07	-6.249738e-10	5.610805e+00	-4.136907e+01
9.800000e-07	8.622910e-07	-4.816698e-10	5.973643e+00	-3.217527e+01
9.900000e-07	9.143715e-07	-3.326210e-10	6.334438e+00	-2.262542e+01
1.000000e-06	9.659619e-07	-1.783413e-10	6.691838e+00	-1.269442e+01
1.010000e-06	1.016920e-06	-1.808703e-11	7.044858e+00	-2.350908e+00
1.020000e-06	1.067247e-06	1.492763e-10	7.393502e+00	8.436225e+00
1.030000e-06	1.116922e-06	3.235340e-10	7.737634e+00	1.968965e+01
1.040000e-06	1.166042e-06	5.020927e-10	8.077920e+00	3.141583e+01
1.050000e-06	1.214810e-06	6.856903e-10	8.415769e+00	4.359957e+01
1.060000e-06	1.263353e-06	8.773020e-10	8.752054e+00	5.620178e+01
1.070000e-06	1.311604e-06	1.078069e-09	9.086323e+00	6.916046e+01
1.080000e-06	1.359386e-06	1.280334e-09	9.417338e+00	8.239407e+01
1.090000e-06	1.406650e-06	1.481897e-09	9.744768e+00	9.580594e+01
1.100000e-06	1.453434e-06	1.686005e-09	1.006887e+01	1.092889e+02
1.110000e-06	1.499676e-06	1.893377e-09	1.038922e+01	1.227294e+02
1.120000e-06	1.545332e-06	2.094739e-09	1.070550e+01	1.360111e+02
1.130000e-06	1.590488e-06	2.286415e-09	1.101833e+01	1.490194e+02
1.140000e-06	1.635252e-06	2.474622e-09	1.132844e+01	1.616449e+02
1.150000e-06	1.679660e-06	2.661272e-09	1.163608e+01	1.737895e+02
1.160000e-06	1.723608e-06	2.841653e-09	1.194054e+01	1.853713e+02
1.170000e-06	1.766762e-06	3.008149e-09	1.223949e+01	1.963292e+02
1.180000e-06	1.808874e-06	3.163489e-09	1.253123e+01	2.066258e+02
1.190000e-06	1.850067e-06	3.310184e-09	1.281660e+01	2.162475e+02
1.200000e-06	1.890699e-06	3.447366e-09	1.309808e+01	2.252019e+02
1.210000e-06	1.930863e-06	3.572934e-09	1.337633e+01	2.335133e+02
1.220000e-06	1.970354e-06	3.685506e-09	1.364991e+01	2.412165e+02
1.230000e-06	2.009191e-06	3.788661e-09	1.391896e+01	2.483519e+02
1.240000e-06	2.047342e-06	3.889174e-09	1.418325e+01	2.549613e+02
1.250000e-06	2.084742e-06	3.986087e-09	1.444235e+01	2.610863e+02
1.260000e-06	2.121577e-06	4.072684e-09	1.469753e+01	2.667675e+02
1.270000e-06	2.157889e-06	4.150826e-09	1.494908e+01	2.720453e+02
1.280000e-06	2.193486e-06	4.226201e-09	1.519569e+01	2.769596e+02
1.290000e-06	2.228071e-06	4.298514e-09	1.543528e+01	2.815490e+02
1.300000e-06	2.261553e-06	4.362793e-09	1.566723e+01	2.858488e+02
1.310000e-06	2.294213e-06	4.419938e-09	1.589348e+01	2.898880e+02
1.320000e-06	2.326174e-06	4.472695e-09	1.611490e+01	2.936874e+02
1.330000e-06	2.357384e-06	4.524079e-09	1.633111e+01	2.972588e+02
1.340000e-06	2.387816e-06	4.574370e-09	1.654193e+01	3.006062e+02
1.350000e-06	2.417444e-06	4.620976e-09	1.674718e+01	3.037297e+02
1.360000e-06	2.446378e-06	4.664909e-09	1.694763e+01	3.066299e+02
1.370000e-06	2.474645e-06	4.705622e-09	1.714345e+01	3.093122e+02
1.380000e-06	2.501914e-06	4.743503e-09	1.733236e+01	3.117896e+02
1.390000e-06	2.527955e-06	4.777726e-09	1.751276e+01	3.140830e+02
1.400000e-06	2.552934e-06	4.807626e-09	1.768581e+01	3.162184e+02
1.410000e-06	2.577048e-06	4.835263e-09	1.785287e+01	3.182224e+02
1.420000e-06	2.600345e-06	4.862929e-09	1.801426e+01	3.201172e+02
1.430000e-06	2.622743e-06	4.891183e-09	1.816942e+01	3.219170e+02
1.440000e-06	2.644234e-06	4.917027e-09	1.831830e+01	3.236264e+02
1.450000e-06	2.664964e-06	4.940441e-09	1.846192e+01	3.252419e+02
1.460000e-06	2.684924e-06	4.962407e-09	1.860019e+01	3.267555e+02
1.470000e-06	2.704012e-06	4.984253e-09	1.873243e+01	3.281602e+02
1.480000e-06	2.722093e-06	5.005720e-09	1.885769e+01	3.294532e+02
1.490000e-06	2.739216e-06	5.023766e-09	1.897631e+01	3.306392e+02
1.500000e-06	2.755332e-06	5.038585e-09	1.908796e+01	3.317292e+02
1.510000e-06	2.770323e-06	5.054378e-09	1.919181e+01	3.327386e+02
1.520000e-06	2.784268e-06	5.070139e-09	1.928841e+01	3.336818e+02
1.530000e-06	2.797196e-06	5.082918e-09	1.937797e+01	3.345692e+02
1.540000e-06	2.809008e-06	5.094009e-09	1.945980e+01	3.354038e+02
1.550000e-06	2.819506e-06	5.105894e-09	1.953252e+01	3.361810e+02
1.560000e-06	2.828776e-06	5.119106e-09	1.959674e+01	3.368914e+02
1.570000e-06	2.837124e-06	5.130036e-09	1.965458e+01	3.375238e+02
1.580000e-06	2.844598e-06	5.139069e-09	1.970636e+01	3.380703e+02
1.590000e-06	2.851086e-06	5.147974e-09	1.975130e+01	3.385291e+02
1.600000e-06	2.856635e-06	5.154770e-09	1.978975e+01	3.389058e+02
1.610000e-06	2.861343e-06	5.157613e-09	1.982236e+01	3.392118e+02
1.620000e-06	2.865113e-06	5.158291e-09	1.984848e+01	3.394612e+02
1.630000e-06	2.867677e-06	5.161730e-09	1.986624e+01	3.396665e+02
1.640000e-06	2.869049e-06	5.169214e-09	1.987574e+01	3.398348e+02
1.650000e-06	2.869447e-06	5.173882e-09	1.987850e+01	3.399660e+02
1.660000e-06	2.868975e-06	5.172991e-09	1.987523e+01	3.400532e+02
1.670000e-06	2.867615e-06	5.170675e-09	1.986581e+01	3.400852e+02
1.680000e-06	2.865339e-06	5.171168e-09	1.985004e+01	3.400502e+02
1.690000e-06	2.862246e-06	5.172760e-09	1.982861e+01	3.399399e+02
1.700000e-06	2.858307e-06	5.170874e-09	1.980133e+01	3.397517e+02
1.710000e-06	2.853281e-06	5.163193e-09	1.976651e+01	3.394899e+02
1.720000e-06	2.847128e-06	5.144094e-09	1.972388e+01	3.391636e+02
1.730000e-06	2.840059e-06	5.137166e-09	1.967491e+01	3.387840e+02
1.740000e-06	2.832047e-06	5.161455e-09	1.961941e+01	3.383607e+02
1.750000e-06	2.822615e-06	5.185499e-09	1.955407e+01	3.378997e+02
1.760000e-06	2.811702e-06	5.141324e-09	1.947846e+01	3.374012e+02
1.770000e-06	2.800026e-06	5.062935e-09	1.939758e+01	3.368616e+02
1.780000e-06	2.788133e-06	5.131560e-09	1.931519e+01	3.362748e+02
1.790000e-06	2.775307e-06	5.156706e-09	1.922633e+01	3.356358e+02
1.800000e-06	2.760825e-06	5.064547e-09	1.912600e+01	3.349422e+02
1.810000e-06	2.745338e-06	5.032558e-09	1.901872e+01	3.341959e+02
1.820000e-06	2.729251e-06	5.124176e-09	1.890727e+01	3.334013e+02
1.830000e-06	2.711975e-06	5.118699e-09	1.878759e+01	3.325637e+02
1.840000e-06	2.693482e-06	4.998000e-09	1.865948e+01	3.316866e+02
1.850000e-06	2.674303e-06	5.063799e-09	1.852661e+01	3.307691e+02
1.860000e-06	2.654275e-06	5.092743e-09	1.838787e+01	3.298054e+02
1.870000e-06	2.632980e-06	4.962449e-09	1.824034e+01	3.287861e+02
1.880000e-06	2.610615e-06	4.985775e-09	1.808541e+01	3.277004e+02
1.890000e-06	2.587311e-06	5.041680e-09	1.792396e+01	3.265392e+02
1.900000e-06	2.563060e-06	4.949407e-09	1.775596e+01	3.252982e+02
1.910000e-06	2.538131e-06	4.932385e-09	1.758326e+01	3.239784e+02
1.920000e-06	2.512390e-06	4.952340e-09	1.740494e+01	3.225860e+02
1.930000e-06	2.485715e-06	4.909382e-09	1.722014e+01	3.211300e+02
1.940000e-06	2.458365e-06	4.878424e-09	1.703067e+01	3.196188e+02
1.950000e-06	2.430098e-06	4.868788e-09	1.683485e+01	3.180582e+02
1.960000e-06	2.400629e-06	4.818896e-09	1.663070e+01	3.164495e+02
1.970000e-06	2.370165e-06	4.814574e-09	1.641965e+01	3.147901e+02
1.980000e-06	2.338917e-06	4.792930e-09	1.620318e+01	3.130749e+02
1.990000e-06	2.307005e-06	4.739424e-09	1.598210e+01	3.112992e+02
2.000000e-06	2.274362e-06	4.747422e-09	1.575597e+01	3.094604e+02
2.010000e-06	2.240866e-06	4.703873e-09	1.552392e+01	3.075593e+02
2.020000e-06	2.206616e-06	4.649341e-09	1.528665e+01	3.055995e+02
2.030000e-06	2.171755e-06	4.658365e-09	1.504514e+01	3.035858e+02
2.040000e-06	2.136243e-06	4.598761e-09	1.479912e+01	3.015222e+02
2.050000e-06	2.099979e-06	4.532925e-09	1.454790e+01	2.994101e+02
2.060000e-06	2.062683e-06	4.553228e-09	1.428953e+01	2.972483e+02
2.070000e-06	2.024321e-06	4.521296e-09	1.402377e+01	2.950338e+02
2.080000e-06	1.985249e-06	4.462385e-09	1.375309e+01	2.927639e+02
2.090000e-06	1.945624e-06	4.439161e-09	1.347858e+01	2.904378e+02
2.100000e-06	1.905382e-06	4.399567e-09	1.319980e+01	2.880580e+02
2.110000e-06	1.864468e-06	4.354435e-09	1.291637e+01	2.856294e+02
2.120000e-06	1.822966e-06	4.307109e-09	1.262885e+01	2.831572e+02
2.130000e-06	1.780943e-06	4.273440e-09	1.233773e+01	2.806443e+02
2.140000e-06	1.738323e-06	4.256001e-09	1.204248e+01	2.780893e+02
2.150000e-06	1.695194e-06	4.211589e-09	1.174370e+01	2.754852e+02
2.160000e-06	1.651589e-06	4.156988e-09	1.144162e+01	2.728216e+02
2.170000e-06	1.607393e-06	4.116319e-09	1.113544e+01	2.700873e+02
2.180000e-06	1.562618e-06	4.071226e-09	1.082525e+01	2.672742e+02
2.190000e-06	1.517269e-06	4.030452e-09	1.051110e+01	2.643809e+02
2.200000e-06	1.471383e-06	3.995942e-09	1.019321e+01	2.614132e+02
2.210000e-06	1.425057e-06	3.947284e-09	9.872287e+00	2.583825e+02
2.220000e-06	1.378294e-06	3.895585e-09	9.548326e+00	2.553013e+02
2.230000e-06	1.330989e-06	3.846038e-09	9.220613e+00	2.521787e+02
2.240000e-06	1.283047e-06	3.799720e-09	8.888488e+00	2.490158e+02
2.250000e-06	1.234529e-06	3.742655e-09	8.552376e+00	2.458042e+02
2.260000e-06	1.185599e-06	3.693569e-09	8.213404e+00	2.425277e+02
2.270000e-06	1.136262e-06	3.656911e-09	7.871615e+00	2.391673e+02
2.280000e-06	1.086526e-06	3.604723e-09	7.527064e+00	2.357069e+02
2.290000e-06	1.036326e-06	3.544509e-09	7.179293e+00	2.321392e+02
2.300000e-06	9.856329e-07	3.481836e-09	6.828111e+00	2.284679e+02
2.310000e-06	9.346117e-07	3.421574e-09	6.474655e+00	2.247069e+02
2.320000e-06	8.833296e-07	3.364230e-09	6.119391e+00	2.208749e+02
2.330000e-06	8.318220e-07	3.308432e-09	5.762564e+00	2.169891e+02
2.340000e-06	7.799762e-07	3.254380e-09	5.403396e+00	2.130587e+02
2.350000e-06	7.276358e-07	3.197983e-09	5.040800e+00	2.090808e+02
2.360000e-06	6.748743e-07	3.135627e-09	4.675287e+00	2.050410e+02
2.370000e-06	6.217411e-07	3.072211e-09	4.307199e+00	2.009179e+02
2.380000e-06	5.681594e-07	3.006026e-09	3.936004e+00	1.966895e+02
2.390000e-06	5.141300e-07	2.938497e-09	3.561708e+00	1.923402e+02
2.400000e-06	4.598378e-07	2.875268e-09	3.185592e+00	1.878651e+02
2.410000e-06	4.054454e-07	2.811427e-09	2.808781e+00	1.832702e+02
2.420000e-06	3.508774e-07	2.744361e-09	2.430753e+00	1.785687e+02
2.430000e-06	2.961301e-07	2.667534e-09	2.051483e+00	1.737742e+02
2.440000e-06	2.413232e-07	2.588672e-09	1.671800e+00	1.688941e+02
2.450000e-06	1.864397e-07	2.514926e-09	1.291587e+00	1.639247e+02
2.460000e-06	1.315331e-07	2.440960e-09	9.112141e-01	1.588509e+02
2.470000e-06	7.660183e-08	2.363195e-09	5.306700e-01	1.536492e+02
2.480000e-06	2.162188e-08	2.280630e-09	1.497886e-01	1.482945e+02
2.490000e-06	-3.335645e-08	2.197025e-09	-2.310815e-01	1.427667e+02
2.500000e-06	-8.835676e-08	2.110900e-09	-6.121039e-01	1.370558e+02
2.510000e-06	-1.433358e-07	2.021606e-09	-9.929788e-01	1.311626e+02
2.520000e-06	-1.982741e-07	1.930454e-09	-1.373572e+00	1.250953e+02
2.530000e-06	-2.531808e-07	1.836242e-09	-1.753946e+00	1.188637e+02
2.540000e-06	-3.080511e-07	1.737740e-09	-2.134068e+00	1.124718e+02
2.550000e-06	-3.628078e-07	1.639946e-09	-2.513403e+00	1.059123e+02
2.560000e-06	-4.173228e-07	1.539883e-09	-2.891063e+00	9.916539e+01
2.570000e-06	-4.716101e-07	1.432204e-09	-3.267146e+00	9.220092e+01
2.580000e-06	-5.257171e-07	1.319855e-09	-3.641980e+00	8.498442e+01
2.590000e-06	-5.795852e-07	1.205866e-09	-4.015159e+00	7.748381e+01
2.600000e-06	-6.330452e-07	1.090423e-09	-4.385510e+00	6.967478e+01
2.610000e-06	-6.859894e-07	9.681823e-10	-4.752288e+00	6.154291e+01
2.620000e-06	-7.384676e-07	8.397339e-10	-5.115839e+00	5.308189e+01
2.630000e-06	-7.905938e-07	7.064514e-10	-5.476950e+00	4.428851e+01
2.640000e-06	-8.423367e-07	5.685177e-10	-5.835407e+00	3.515660e+01
2.650000e-06	-8.937375e-07	4.247613e-10	-6.191493e+00	2.567216e+01
2.660000e-06	-9.449255e-07	2.744304e-10	-6.546105e+00	1.581165e+01
2.670000e-06	-9.958504e-07	1.174664e-10	-6.898894e+00	5.544439e+00
2.680000e-06	-1.046429e-06	-4.569173e-11	-7.249284e+00	-5.161217e+00
2.690000e-06	-1.096558e-06	-2.133800e-10	-7.596560e+00	-1.633010e+01
2.700000e-06	-1.146210e-06	-3.879513e-10	-7.940530e+00	-2.797206e+01
2.710000e-06	-1.195435e-06	-5.699906e-10	-8.281545e+00	-4.007602e+01
2.720000e-06	-1.244192e-06	-7.599558e-10	-8.619315e+00	-5.260718e+01
2.730000e-06	-1.292314e-06	-9.569287e-10	-8.952691e+00	-6.550744e+01
2.740000e-06	-1.339660e-06	-1.160810e-09	-9.280687e+00	-7.869842e+01
2.750000e-06	-1.386266e-06	-1.370193e-09	-9.603551e+00	-9.208583e+01
2.760000e-06	-1.432315e-06	-1.581118e-09	-9.922565e+00	-1.055641e+02
2.770000e-06	-1.477940e-06	-1.789727e-09	-1.023864e+01	-1.190204e+02
2.780000e-06	-1.523223e-06	-1.993284e-09	-1.055234e+01	-1.323388e+02
2.790000e-06	-1.568141e-06	-2.191576e-09	-1.086352e+01	-1.454038e+02
2.800000e-06	-1.612509e-06	-2.383154e-09	-1.117088e+01	-1.581050e+02
2.810000e-06	-1.656274e-06	-2.570132e-09	-1.147407e+01	-1.703418e+02
2.820000e-06	-1.699615e-06	-2.751211e-09	-1.177432e+01	-1.820290e+02
2.830000e-06	-1.742613e-06	-2.921898e-09	-1.207220e+01	-1.931015e+02
2.840000e-06	-1.785116e-06	-3.081257e-09	-1.236665e+01	-2.035176e+02
2.850000e-06	-1.826986e-06	-3.231298e-09	-1.265670e+01	-2.132596e+02
2.860000e-06	-1.868205e-06	-3.372717e-09	-1.294225e+01	-2.223316e+02
2.870000e-06	-1.908803e-06	-3.502371e-09	-1.322350e+01	-2.307552e+02
2.880000e-06	-1.948766e-06	-3.620532e-09	-1.350035e+01	-2.385639e+02
2.890000e-06	-1.988151e-06	-3.730726e-09	-1.377320e+01	-2.457974e+02
2.900000e-06	-2.026976e-06	-3.834632e-09	-1.404217e+01	-2.524974e+02
2.910000e-06	-2.064979e-06	-3.932153e-09	-1.430544e+01	-2.587057e+02
2.920000e-06	-2.101954e-06	-4.022301e-09	-1.456159e+01	-2.644629e+02
2.930000e-06	-2.137958e-06	-4.103657e-09	-1.481101e+01	-2.698096e+02
2.940000e-06	-2.173252e-06	-4.180547e-09	-1.505551e+01	-2.747856e+02
