# Temperatura_=_19.59
# Concentracion g/m^3_=_13400.0
# C_Vs_to_Am_M_A/Vsm_=_65563218390.804596
# pendiente_HvsI_1/m_=_3716.3
# ordenada_HvsI_A/m_=_1297.0
# frecuencia_Hz_=_300842.6328880665

Tiempo_(s)	Campo_(V.s)	Magnetizacion_(V.s)	Campo_(kA/m)	Magnetizacion_(A/m)
0.000000e+00	-2.858230e-06	-5.013759e-09	-1.980533e+01	-3.278722e+02
1.000000e-08	-2.857821e-06	-5.013133e-09	-1.980250e+01	-3.279700e+02
2.000000e-08	-2.856565e-06	-5.005644e-09	-1.979380e+01	-3.280044e+02
3.000000e-08	-2.854141e-06	-5.001917e-09	-1.977700e+01	-3.279588e+02
4.000000e-08	-2.850485e-06	-5.002987e-09	-1.975167e+01	-3.278209e+02
5.000000e-08	-2.845947e-06	-5.002859e-09	-1.972022e+01	-3.275875e+02
6.000000e-08	-2.840675e-06	-4.996783e-09	-1.968369e+01	-3.272658e+02
7.000000e-08	-2.834524e-06	-4.991057e-09	-1.964107e+01	-3.268721e+02
8.000000e-08	-2.827317e-06	-4.994178e-09	-1.959113e+01	-3.264263e+02
9.000000e-08	-2.819028e-06	-4.991232e-09	-1.953369e+01	-3.259461e+02
1.000000e-07	-2.809483e-06	-4.965565e-09	-1.946755e+01	-3.254412e+02
1.100000e-07	-2.798467e-06	-4.946536e-09	-1.939122e+01	-3.249106e+02
1.200000e-07	-2.786427e-06	-4.951124e-09	-1.930779e+01	-3.243447e+02
1.300000e-07	-2.773670e-06	-4.963409e-09	-1.921940e+01	-3.237297e+02
1.400000e-07	-2.759965e-06	-4.917697e-09	-1.912443e+01	-3.230541e+02
1.500000e-07	-2.745210e-06	-4.919715e-09	-1.902219e+01	-3.223144e+02
1.600000e-07	-2.729393e-06	-4.940942e-09	-1.891259e+01	-3.215168e+02
1.700000e-07	-2.712310e-06	-4.919761e-09	-1.879422e+01	-3.206751e+02
1.800000e-07	-2.694130e-06	-4.911369e-09	-1.866824e+01	-3.198055e+02
1.900000e-07	-2.675277e-06	-4.893033e-09	-1.853761e+01	-3.189194e+02
2.000000e-07	-2.655649e-06	-4.880125e-09	-1.840160e+01	-3.180181e+02
2.100000e-07	-2.635089e-06	-4.850172e-09	-1.825914e+01	-3.170912e+02
2.200000e-07	-2.613729e-06	-4.840685e-09	-1.811113e+01	-3.161190e+02
2.300000e-07	-2.591575e-06	-4.850664e-09	-1.795762e+01	-3.150791e+02
2.400000e-07	-2.568423e-06	-4.830848e-09	-1.779719e+01	-3.139535e+02
2.500000e-07	-2.544365e-06	-4.783244e-09	-1.763049e+01	-3.127345e+02
2.600000e-07	-2.519554e-06	-4.767530e-09	-1.745857e+01	-3.114262e+02
2.700000e-07	-2.493792e-06	-4.759838e-09	-1.728006e+01	-3.100417e+02
2.800000e-07	-2.466929e-06	-4.725331e-09	-1.709392e+01	-3.085972e+02
2.900000e-07	-2.439034e-06	-4.679769e-09	-1.690062e+01	-3.071050e+02
3.000000e-07	-2.410239e-06	-4.690203e-09	-1.670110e+01	-3.055687e+02
3.100000e-07	-2.380620e-06	-4.676496e-09	-1.649586e+01	-3.039823e+02
3.200000e-07	-2.350295e-06	-4.621493e-09	-1.628573e+01	-3.023338e+02
3.300000e-07	-2.319208e-06	-4.624557e-09	-1.607033e+01	-3.006112e+02
3.400000e-07	-2.287293e-06	-4.593797e-09	-1.584918e+01	-2.988086e+02
3.500000e-07	-2.254784e-06	-4.526607e-09	-1.562392e+01	-2.969298e+02
3.600000e-07	-2.221657e-06	-4.521469e-09	-1.539437e+01	-2.949880e+02
3.700000e-07	-2.187548e-06	-4.522283e-09	-1.515802e+01	-2.930002e+02
3.800000e-07	-2.152273e-06	-4.453736e-09	-1.491360e+01	-2.909812e+02
3.900000e-07	-2.116094e-06	-4.435417e-09	-1.466290e+01	-2.889367e+02
4.000000e-07	-2.079306e-06	-4.436872e-09	-1.440799e+01	-2.868615e+02
4.100000e-07	-2.041909e-06	-4.373993e-09	-1.414886e+01	-2.847407e+02
4.200000e-07	-2.003782e-06	-4.321143e-09	-1.388466e+01	-2.825561e+02
4.300000e-07	-1.964855e-06	-4.300567e-09	-1.361493e+01	-2.802937e+02
4.400000e-07	-1.925215e-06	-4.268872e-09	-1.334025e+01	-2.779495e+02
4.500000e-07	-1.885027e-06	-4.231393e-09	-1.306178e+01	-2.755316e+02
4.600000e-07	-1.844452e-06	-4.200765e-09	-1.278063e+01	-2.730570e+02
4.700000e-07	-1.803359e-06	-4.160175e-09	-1.249589e+01	-2.705449e+02
4.800000e-07	-1.761365e-06	-4.123196e-09	-1.220490e+01	-2.680084e+02
4.900000e-07	-1.718275e-06	-4.069934e-09	-1.190632e+01	-2.654487e+02
5.000000e-07	-1.674330e-06	-4.021912e-09	-1.160182e+01	-2.628543e+02
5.100000e-07	-1.629931e-06	-3.992462e-09	-1.129417e+01	-2.602044e+02
5.200000e-07	-1.585134e-06	-3.956246e-09	-1.098376e+01	-2.574774e+02
5.300000e-07	-1.539811e-06	-3.914875e-09	-1.066971e+01	-2.546586e+02
5.400000e-07	-1.493925e-06	-3.875854e-09	-1.035175e+01	-2.517462e+02
5.500000e-07	-1.447505e-06	-3.821468e-09	-1.003010e+01	-2.487511e+02
5.600000e-07	-1.400577e-06	-3.761282e-09	-9.704918e+00	-2.456924e+02
5.700000e-07	-1.353134e-06	-3.725760e-09	-9.376179e+00	-2.425888e+02
5.800000e-07	-1.305239e-06	-3.678800e-09	-9.044303e+00	-2.394503e+02
5.900000e-07	-1.257011e-06	-3.624380e-09	-8.710117e+00	-2.362731e+02
6.000000e-07	-1.208452e-06	-3.580907e-09	-8.373643e+00	-2.330404e+02
6.100000e-07	-1.159439e-06	-3.532305e-09	-8.034018e+00	-2.297288e+02
6.200000e-07	-1.109747e-06	-3.472183e-09	-7.689693e+00	-2.263170e+02
6.300000e-07	-1.059298e-06	-3.416260e-09	-7.340122e+00	-2.227947e+02
6.400000e-07	-1.008230e-06	-3.363776e-09	-6.986260e+00	-2.191674e+02
6.500000e-07	-9.566605e-07	-3.305232e-09	-6.628920e+00	-2.154545e+02
6.600000e-07	-9.047286e-07	-3.249447e-09	-6.269073e+00	-2.116825e+02
6.700000e-07	-8.525378e-07	-3.193057e-09	-5.907430e+00	-2.078749e+02
6.800000e-07	-8.001078e-07	-3.133662e-09	-5.544131e+00	-2.040433e+02
6.900000e-07	-7.473641e-07	-3.067751e-09	-5.178658e+00	-2.001825e+02
7.000000e-07	-6.942962e-07	-3.005367e-09	-4.810938e+00	-1.962722e+02
7.100000e-07	-6.409599e-07	-2.948302e-09	-4.441359e+00	-1.922844e+02
7.200000e-07	-5.874084e-07	-2.888610e-09	-4.070288e+00	-1.881927e+02
7.300000e-07	-5.336526e-07	-2.822070e-09	-3.697801e+00	-1.839814e+02
7.400000e-07	-4.797000e-07	-2.752102e-09	-3.323951e+00	-1.796498e+02
7.500000e-07	-4.256031e-07	-2.682533e-09	-2.949102e+00	-1.752102e+02
7.600000e-07	-3.713784e-07	-2.609880e-09	-2.573367e+00	-1.706809e+02
7.700000e-07	-3.170667e-07	-2.536938e-09	-2.197028e+00	-1.660769e+02
7.800000e-07	-2.627102e-07	-2.464596e-09	-1.820379e+00	-1.614016e+02
7.900000e-07	-2.082694e-07	-2.395579e-09	-1.443146e+00	-1.566439e+02
8.000000e-07	-1.537427e-07	-2.323608e-09	-1.065318e+00	-1.517801e+02
8.100000e-07	-9.920664e-08	-2.244716e-09	-6.874256e-01	-1.467815e+02
8.200000e-07	-4.466465e-08	-2.163110e-09	-3.094916e-01	-1.416234e+02
8.300000e-07	9.917260e-09	-2.081610e-09	6.871898e-02	-1.362920e+02
8.400000e-07	6.450333e-08	-1.997705e-09	4.469584e-01	-1.307880e+02
8.500000e-07	1.190379e-07	-1.907843e-09	8.248412e-01	-1.251231e+02
8.600000e-07	1.735268e-07	-1.818794e-09	1.202407e+00	-1.193131e+02
8.700000e-07	2.280124e-07	-1.732060e-09	1.579950e+00	-1.133697e+02
8.800000e-07	2.824838e-07	-1.645040e-09	1.957395e+00	-1.072934e+02
8.900000e-07	3.368449e-07	-1.550879e-09	2.334076e+00	-1.010716e+02
9.000000e-07	3.910978e-07	-1.447316e-09	2.710007e+00	-9.468066e+01
9.100000e-07	4.452357e-07	-1.342355e-09	3.085140e+00	-8.809264e+01
9.200000e-07	4.992193e-07	-1.240896e-09	3.459205e+00	-8.128203e+01
9.300000e-07	5.530529e-07	-1.135325e-09	3.832231e+00	-7.423090e+01
9.400000e-07	6.066782e-07	-1.019189e-09	4.203813e+00	-6.693002e+01
9.500000e-07	6.599905e-07	-9.004179e-10	4.573226e+00	-5.937580e+01
9.600000e-07	7.129705e-07	-7.844689e-10	4.940337e+00	-5.156465e+01
9.700000e-07	7.657036e-07	-6.652234e-10	5.305736e+00	-4.348718e+01
9.800000e-07	8.182355e-07	-5.325202e-10	5.669742e+00	-3.512498e+01
9.900000e-07	8.705430e-07	-3.939512e-10	6.032192e+00	-2.645112e+01
1.000000e-06	9.225638e-07	-2.581491e-10	6.392657e+00	-1.743442e+01
1.010000e-06	9.741353e-07	-1.183889e-10	6.750007e+00	-8.045671e+00
1.020000e-06	1.025148e-06	3.268351e-11	7.103489e+00	1.736340e+00
1.030000e-06	1.075543e-06	1.933243e-10	7.452684e+00	1.192108e+01
1.040000e-06	1.125233e-06	3.572554e-10	7.797000e+00	2.250559e+01
1.050000e-06	1.174292e-06	5.237685e-10	8.136938e+00	3.347621e+01
1.060000e-06	1.222961e-06	6.960696e-10	8.474177e+00	4.481107e+01
1.070000e-06	1.271413e-06	8.755876e-10	8.809913e+00	5.648145e+01
1.080000e-06	1.319546e-06	1.058672e-09	9.143440e+00	6.845069e+01
1.090000e-06	1.367181e-06	1.243325e-09	9.473510e+00	8.067082e+01
1.100000e-06	1.414274e-06	1.430276e-09	9.799830e+00	9.307841e+01
1.110000e-06	1.460883e-06	1.622255e-09	1.012279e+01	1.055919e+02
1.120000e-06	1.506979e-06	1.815704e-09	1.044220e+01	1.181122e+02
1.130000e-06	1.552519e-06	2.002782e-09	1.075776e+01	1.305279e+02
1.140000e-06	1.597553e-06	2.184241e-09	1.106981e+01	1.427245e+02
1.150000e-06	1.642177e-06	2.364538e-09	1.137902e+01	1.545941e+02
1.160000e-06	1.686487e-06	2.542146e-09	1.168605e+01	1.660459e+02
1.170000e-06	1.730326e-06	2.709186e-09	1.198983e+01	1.770108e+02
1.180000e-06	1.773334e-06	2.864417e-09	1.228784e+01	1.874432e+02
1.190000e-06	1.815333e-06	3.012994e-09	1.257886e+01	1.973170e+02
1.200000e-06	1.856429e-06	3.157577e-09	1.286362e+01	2.066204e+02
1.210000e-06	1.896946e-06	3.294172e-09	1.314437e+01	2.153497e+02
1.220000e-06	1.937016e-06	3.418364e-09	1.342203e+01	2.235068e+02
1.230000e-06	1.976480e-06	3.528657e-09	1.369548e+01	2.310986e+02
1.240000e-06	2.015217e-06	3.630890e-09	1.396390e+01	2.381399e+02
1.250000e-06	2.053250e-06	3.729221e-09	1.422744e+01	2.446564e+02
1.260000e-06	2.090580e-06	3.821024e-09	1.448611e+01	2.506863e+02
1.270000e-06	2.127281e-06	3.906613e-09	1.474042e+01	2.562784e+02
1.280000e-06	2.163463e-06	3.987021e-09	1.499113e+01	2.614872e+02
1.290000e-06	2.198904e-06	4.063964e-09	1.523671e+01	2.663650e+02
1.300000e-06	2.233302e-06	4.133747e-09	1.547506e+01	2.709548e+02
1.310000e-06	2.266612e-06	4.193867e-09	1.570588e+01	2.752847e+02
1.320000e-06	2.299115e-06	4.249653e-09	1.593109e+01	2.793678e+02
1.330000e-06	2.330987e-06	4.306502e-09	1.615195e+01	2.832047e+02
1.340000e-06	2.362125e-06	4.363878e-09	1.636771e+01	2.867910e+02
1.350000e-06	2.392436e-06	4.415535e-09	1.657774e+01	2.901239e+02
1.360000e-06	2.421917e-06	4.458282e-09	1.678202e+01	2.932084e+02
1.370000e-06	2.450647e-06	4.496474e-09	1.698110e+01	2.960593e+02
1.380000e-06	2.478709e-06	4.534513e-09	1.717554e+01	2.986999e+02
1.390000e-06	2.505853e-06	4.570602e-09	1.736363e+01	3.011575e+02
1.400000e-06	2.531770e-06	4.602645e-09	1.754321e+01	3.034584e+02
1.410000e-06	2.556594e-06	4.631817e-09	1.771522e+01	3.056230e+02
1.420000e-06	2.580559e-06	4.662484e-09	1.788129e+01	3.076639e+02
1.430000e-06	2.603670e-06	4.696541e-09	1.804143e+01	3.095867e+02
1.440000e-06	2.625925e-06	4.726430e-09	1.819564e+01	3.113922e+02
1.450000e-06	2.647314e-06	4.747564e-09	1.834384e+01	3.130801e+02
1.460000e-06	2.667947e-06	4.764696e-09	1.848682e+01	3.146513e+02
1.470000e-06	2.687860e-06	4.784460e-09	1.862480e+01	3.161097e+02
1.480000e-06	2.706770e-06	4.806662e-09	1.875583e+01	3.174616e+02
1.490000e-06	2.724680e-06	4.826576e-09	1.887993e+01	3.187151e+02
1.500000e-06	2.741667e-06	4.843848e-09	1.899764e+01	3.198780e+02
1.510000e-06	2.757589e-06	4.861680e-09	1.910797e+01	3.209571e+02
1.520000e-06	2.772401e-06	4.880698e-09	1.921060e+01	3.219576e+02
1.530000e-06	2.786152e-06	4.895795e-09	1.930588e+01	3.228836e+02
1.540000e-06	2.798880e-06	4.903333e-09	1.939408e+01	3.237380e+02
1.550000e-06	2.810484e-06	4.907779e-09	1.947449e+01	3.245227e+02
1.560000e-06	2.820783e-06	4.917229e-09	1.954586e+01	3.252388e+02
1.570000e-06	2.829885e-06	4.931690e-09	1.960892e+01	3.258862e+02
1.580000e-06	2.838062e-06	4.944753e-09	1.966559e+01	3.264639e+02
1.590000e-06	2.845349e-06	4.954789e-09	1.971607e+01	3.269714e+02
1.600000e-06	2.851685e-06	4.963397e-09	1.975998e+01	3.274095e+02
1.610000e-06	2.857077e-06	4.969999e-09	1.979734e+01	3.277823e+02
1.620000e-06	2.861604e-06	4.973080e-09	1.982871e+01	3.280968e+02
1.630000e-06	2.865176e-06	4.973482e-09	1.985346e+01	3.283623e+02
1.640000e-06	2.867519e-06	4.975363e-09	1.986970e+01	3.285877e+02
1.650000e-06	2.868631e-06	4.981712e-09	1.987740e+01	3.287783e+02
1.660000e-06	2.868789e-06	4.988599e-09	1.987850e+01	3.289329e+02
1.670000e-06	2.868099e-06	4.990365e-09	1.987372e+01	3.290426e+02
1.680000e-06	2.866537e-06	4.988335e-09	1.986290e+01	3.290925e+02
1.690000e-06	2.864091e-06	4.987996e-09	1.984594e+01	3.290658e+02
1.700000e-06	2.860828e-06	4.989889e-09	1.982334e+01	3.289488e+02
1.710000e-06	2.856760e-06	4.988795e-09	1.979514e+01	3.287360e+02
1.720000e-06	2.851559e-06	4.982400e-09	1.975911e+01	3.284326e+02
1.730000e-06	2.845142e-06	4.968246e-09	1.971464e+01	3.280531e+02
1.740000e-06	2.837843e-06	4.954093e-09	1.966406e+01	3.276173e+02
1.750000e-06	2.829607e-06	4.954168e-09	1.960699e+01	3.271438e+02
1.760000e-06	2.819913e-06	4.974982e-09	1.953983e+01	3.266443e+02
1.770000e-06	2.808747e-06	4.951067e-09	1.946245e+01	3.261203e+02
1.780000e-06	2.796959e-06	4.932315e-09	1.938077e+01	3.255635e+02
1.790000e-06	2.785028e-06	4.931247e-09	1.929810e+01	3.249606e+02
1.800000e-06	2.772066e-06	4.919888e-09	1.920828e+01	3.242992e+02
1.810000e-06	2.757414e-06	4.885901e-09	1.910675e+01	3.235735e+02
1.820000e-06	2.741790e-06	4.876843e-09	1.899850e+01	3.227877e+02
1.830000e-06	2.725554e-06	4.927696e-09	1.888599e+01	3.219545e+02
1.840000e-06	2.708078e-06	4.910200e-09	1.876490e+01	3.210902e+02
1.850000e-06	2.689357e-06	4.878643e-09	1.863517e+01	3.202076e+02
1.860000e-06	2.670022e-06	4.897171e-09	1.850120e+01	3.193105e+02
1.870000e-06	2.649857e-06	4.874324e-09	1.836146e+01	3.183910e+02
1.880000e-06	2.628412e-06	4.838651e-09	1.821287e+01	3.174309e+02
1.890000e-06	2.605949e-06	4.835297e-09	1.805722e+01	3.164077e+02
1.900000e-06	2.582559e-06	4.813825e-09	1.789514e+01	3.153020e+02
1.910000e-06	2.558177e-06	4.811072e-09	1.772619e+01	3.141036e+02
1.920000e-06	2.533043e-06	4.795778e-09	1.755204e+01	3.128140e+02
1.930000e-06	2.507128e-06	4.760715e-09	1.737247e+01	3.114449e+02
1.940000e-06	2.480334e-06	4.754617e-09	1.718680e+01	3.100124e+02
1.950000e-06	2.452886e-06	4.748346e-09	1.699661e+01	3.085303e+02
1.960000e-06	2.424545e-06	4.683495e-09	1.680023e+01	3.070041e+02
1.970000e-06	2.394892e-06	4.659082e-09	1.659475e+01	3.054298e+02
1.980000e-06	2.364256e-06	4.673778e-09	1.638248e+01	3.037962e+02
1.990000e-06	2.332942e-06	4.610307e-09	1.616549e+01	3.020907e+02
2.000000e-06	2.300900e-06	4.593122e-09	1.594347e+01	3.003057e+02
2.010000e-06	2.268114e-06	4.608105e-09	1.571628e+01	2.984429e+02
2.020000e-06	2.234490e-06	4.535749e-09	1.548329e+01	2.965136e+02
2.030000e-06	2.200123e-06	4.493903e-09	1.524516e+01	2.945348e+02
2.040000e-06	2.165151e-06	4.497941e-09	1.500283e+01	2.925220e+02
2.050000e-06	2.129535e-06	4.426458e-09	1.475604e+01	2.904835e+02
2.060000e-06	2.093153e-06	4.381422e-09	1.450394e+01	2.884164e+02
2.070000e-06	2.055681e-06	4.394452e-09	1.424429e+01	2.863073e+02
2.080000e-06	2.017149e-06	4.358302e-09	1.397729e+01	2.841383e+02
2.090000e-06	1.977983e-06	4.311400e-09	1.370590e+01	2.818938e+02
2.100000e-06	1.938271e-06	4.280290e-09	1.343073e+01	2.795673e+02
2.110000e-06	1.897916e-06	4.241438e-09	1.315109e+01	2.771644e+02
2.120000e-06	1.856946e-06	4.195696e-09	1.286721e+01	2.747007e+02
2.130000e-06	1.815417e-06	4.149211e-09	1.257944e+01	2.721957e+02
2.140000e-06	1.773276e-06	4.119688e-09	1.228743e+01	2.696644e+02
2.150000e-06	1.730477e-06	4.099936e-09	1.199087e+01	2.671107e+02
2.160000e-06	1.687213e-06	4.049292e-09	1.169108e+01	2.645257e+02
2.170000e-06	1.643604e-06	3.994617e-09	1.138891e+01	2.618901e+02
2.180000e-06	1.599419e-06	3.962221e-09	1.108274e+01	2.591817e+02
2.190000e-06	1.554511e-06	3.916171e-09	1.077156e+01	2.563837e+02
2.200000e-06	1.509021e-06	3.870629e-09	1.045636e+01	2.534912e+02
2.210000e-06	1.463125e-06	3.839376e-09	1.013833e+01	2.505128e+02
2.220000e-06	1.416849e-06	3.793414e-09	9.817673e+00	2.474665e+02
2.230000e-06	1.370127e-06	3.733344e-09	9.493925e+00	2.443718e+02
2.240000e-06	1.322777e-06	3.688740e-09	9.165827e+00	2.412411e+02
2.250000e-06	1.274726e-06	3.641405e-09	8.832868e+00	2.380736e+02
2.260000e-06	1.226147e-06	3.584774e-09	8.496252e+00	2.348552e+02
2.270000e-06	1.177176e-06	3.543644e-09	8.156923e+00	2.315630e+02
2.280000e-06	1.127830e-06	3.502999e-09	7.814996e+00	2.281744e+02
2.290000e-06	1.078055e-06	3.448885e-09	7.470090e+00	2.246764e+02
2.300000e-06	1.027811e-06	3.386923e-09	7.121936e+00	2.210708e+02
2.310000e-06	9.771177e-07	3.325309e-09	6.770673e+00	2.173746e+02
2.320000e-06	9.260756e-07	3.266969e-09	6.416991e+00	2.136134e+02
2.330000e-06	8.747716e-07	3.210242e-09	6.061493e+00	2.098125e+02
2.340000e-06	8.232122e-07	3.154360e-09	5.704226e+00	2.059863e+02
2.350000e-06	7.713268e-07	3.101186e-09	5.344700e+00	2.021335e+02
2.360000e-06	7.190271e-07	3.044570e-09	4.982304e+00	1.982366e+02
2.370000e-06	6.662888e-07	2.982322e-09	4.616868e+00	1.942683e+02
2.380000e-06	6.130657e-07	2.921446e-09	4.248073e+00	1.902010e+02
2.390000e-06	5.594275e-07	2.858872e-09	3.876402e+00	1.860164e+02
2.400000e-06	5.054835e-07	2.794136e-09	3.502611e+00	1.817104e+02
2.410000e-06	4.512832e-07	2.729025e-09	3.127045e+00	1.772929e+02
2.420000e-06	3.968831e-07	2.665988e-09	2.750094e+00	1.727818e+02
2.430000e-06	3.422480e-07	2.600805e-09	2.371515e+00	1.681935e+02
2.440000e-06	2.874495e-07	2.527074e-09	1.991804e+00	1.635344e+02
2.450000e-06	2.325690e-07	2.450523e-09	1.611524e+00	1.587965e+02
2.460000e-06	1.776282e-07	2.377833e-09	1.230827e+00	1.539582e+02
2.470000e-06	1.226447e-07	2.307584e-09	8.498336e-01	1.489914e+02
2.480000e-06	6.762319e-08	2.231109e-09	4.685766e-01	1.438695e+02
2.490000e-06	1.257377e-08	2.147421e-09	8.712652e-02	1.385761e+02
2.500000e-06	-4.249260e-08	2.063322e-09	-2.944410e-01	1.331089e+02
2.510000e-06	-9.757487e-08	1.980924e-09	-6.761187e-01	1.274776e+02
2.520000e-06	-1.526496e-07	1.894240e-09	-1.057744e+00	1.216979e+02
2.530000e-06	-2.076278e-07	1.802175e-09	-1.438701e+00	1.157831e+02
2.540000e-06	-2.625485e-07	1.708218e-09	-1.819259e+00	1.097364e+02
2.550000e-06	-3.173979e-07	1.613617e-09	-2.199323e+00	1.035479e+02
2.560000e-06	-3.720384e-07	1.518377e-09	-2.577940e+00	9.719594e+01
2.570000e-06	-4.264775e-07	1.419201e-09	-2.955161e+00	9.065296e+01
2.580000e-06	-4.807522e-07	1.317158e-09	-3.331242e+00	8.389232e+01
2.590000e-06	-5.347726e-07	1.212377e-09	-3.705562e+00	7.689425e+01
2.600000e-06	-5.884817e-07	1.104620e-09	-4.077725e+00	6.964777e+01
2.610000e-06	-6.418251e-07	9.900824e-10	-4.447354e+00	6.214852e+01
2.620000e-06	-6.946864e-07	8.699108e-10	-4.813642e+00	5.439340e+01
2.630000e-06	-7.470858e-07	7.481484e-10	-5.176729e+00	4.637469e+01
2.640000e-06	-7.990831e-07	6.238115e-10	-5.537030e+00	3.807598e+01
2.650000e-06	-8.507131e-07	4.951093e-10	-5.894787e+00	2.947194e+01
2.660000e-06	-9.020501e-07	3.584920e-10	-6.250513e+00	2.053180e+01
2.670000e-06	-9.531134e-07	2.158527e-10	-6.604342e+00	1.122538e+01
2.680000e-06	-1.003902e-06	6.868450e-11	-6.956267e+00	1.529329e+00
2.690000e-06	-1.054355e-06	-8.442305e-11	-7.305870e+00	-8.568490e+00
2.700000e-06	-1.104364e-06	-2.449880e-10	-7.652389e+00	-1.906770e+01
2.710000e-06	-1.153947e-06	-4.105206e-10	-7.995965e+00	-2.995670e+01
2.720000e-06	-1.203064e-06	-5.799999e-10	-8.336306e+00	-4.121523e+01
2.730000e-06	-1.251603e-06	-7.542489e-10	-8.672644e+00	-5.281603e+01
2.740000e-06	-1.299519e-06	-9.325592e-10	-9.004667e+00	-6.472435e+01
2.750000e-06	-1.346656e-06	-1.116824e-09	-9.331288e+00	-7.689500e+01
2.760000e-06	-1.393040e-06	-1.310191e-09	-9.652697e+00	-8.926820e+01
2.770000e-06	-1.438952e-06	-1.509701e-09	-9.970830e+00	-1.017663e+02
2.780000e-06	-1.484585e-06	-1.704705e-09	-1.028703e+01	-1.142937e+02
2.790000e-06	-1.529927e-06	-1.892770e-09	-1.060122e+01	-1.267411e+02
2.800000e-06	-1.574792e-06	-2.078144e-09	-1.091210e+01	-1.389936e+02
2.810000e-06	-1.619032e-06	-2.261073e-09	-1.121865e+01	-1.509412e+02
2.820000e-06	-1.662747e-06	-2.437500e-09	-1.152155e+01	-1.624887e+02
2.830000e-06	-1.706078e-06	-2.604469e-09	-1.182181e+01	-1.735620e+02
2.840000e-06	-1.748966e-06	-2.764871e-09	-1.211899e+01	-1.841109e+02
2.850000e-06	-1.791330e-06	-2.921288e-09	-1.241254e+01	-1.941053e+02
2.860000e-06	-1.833122e-06	-3.071299e-09	-1.270213e+01	-2.035310e+02
2.870000e-06	-1.874327e-06	-3.209311e-09	-1.298764e+01	-2.123829e+02
2.880000e-06	-1.914875e-06	-3.334100e-09	-1.326861e+01	-2.206617e+02
2.890000e-06	-1.954732e-06	-3.449537e-09	-1.354478e+01	-2.283733e+02
2.900000e-06	-1.994040e-06	-3.559928e-09	-1.381716e+01	-2.355303e+02
2.910000e-06	-2.032744e-06	-3.662699e-09	-1.408535e+01	-2.421560e+02
2.920000e-06	-2.070571e-06	-3.757148e-09	-1.434746e+01	-2.482859e+02
2.930000e-06	-2.107344e-06	-3.845563e-09	-1.460227e+01	-2.539668e+02
2.940000e-06	-2.143203e-06	-3.928594e-09	-1.485075e+01	-2.592527e+02
