# Temperatura_=_20.05
# Concentracion g/m^3_=_13400.0
# C_Vs_to_Am_M_A/Vsm_=_65563218390.804596
# pendiente_HvsI_1/m_=_3716.3
# ordenada_HvsI_A/m_=_1297.0
# frecuencia_Hz_=_300839.92084204

Tiempo_(s)	Campo_(V.s)	Magnetizacion_(V.s)	Campo_(kA/m)	Magnetizacion_(A/m)
0.000000e+00	-2.858594e-06	-5.032573e-09	-1.980358e+01	-3.291086e+02
1.000000e-08	-2.857772e-06	-5.032118e-09	-1.979789e+01	-3.290837e+02
2.000000e-08	-2.855954e-06	-5.028264e-09	-1.978529e+01	-3.290259e+02
3.000000e-08	-2.852901e-06	-5.025506e-09	-1.976415e+01	-3.289454e+02
4.000000e-08	-2.848808e-06	-5.026125e-09	-1.973579e+01	-3.288360e+02
5.000000e-08	-2.843895e-06	-5.024740e-09	-1.970175e+01	-3.286776e+02
6.000000e-08	-2.838108e-06	-5.017714e-09	-1.966166e+01	-3.284439e+02
7.000000e-08	-2.831362e-06	-5.005937e-09	-1.961493e+01	-3.281138e+02
8.000000e-08	-2.823644e-06	-5.014537e-09	-1.956146e+01	-3.276801e+02
9.000000e-08	-2.814759e-06	-5.039190e-09	-1.949991e+01	-3.271541e+02
1.000000e-07	-2.804408e-06	-5.024833e-09	-1.942820e+01	-3.265623e+02
1.100000e-07	-2.792817e-06	-4.936313e-09	-1.934790e+01	-3.259383e+02
1.200000e-07	-2.780447e-06	-4.916871e-09	-1.926221e+01	-3.253107e+02
1.300000e-07	-2.767183e-06	-5.000099e-09	-1.917031e+01	-3.246937e+02
1.400000e-07	-2.752918e-06	-5.001592e-09	-1.907149e+01	-3.240823e+02
1.500000e-07	-2.737704e-06	-4.884968e-09	-1.896609e+01	-3.234539e+02
1.600000e-07	-2.721228e-06	-4.919561e-09	-1.885195e+01	-3.227762e+02
1.700000e-07	-2.703403e-06	-4.996108e-09	-1.872846e+01	-3.220182e+02
1.800000e-07	-2.684787e-06	-4.872872e-09	-1.859949e+01	-3.211595e+02
1.900000e-07	-2.665547e-06	-4.841537e-09	-1.846620e+01	-3.201960e+02
2.000000e-07	-2.645398e-06	-4.922301e-09	-1.832662e+01	-3.191390e+02
2.100000e-07	-2.624355e-06	-4.840977e-09	-1.818084e+01	-3.180100e+02
2.200000e-07	-2.602523e-06	-4.779415e-09	-1.802959e+01	-3.168313e+02
2.300000e-07	-2.579783e-06	-4.890235e-09	-1.787205e+01	-3.156186e+02
2.400000e-07	-2.556057e-06	-4.845675e-09	-1.770769e+01	-3.143757e+02
2.500000e-07	-2.531564e-06	-4.719766e-09	-1.753801e+01	-3.130950e+02
2.600000e-07	-2.506271e-06	-4.757651e-09	-1.736279e+01	-3.117608e+02
2.700000e-07	-2.479877e-06	-4.776106e-09	-1.717993e+01	-3.103570e+02
2.800000e-07	-2.452358e-06	-4.689859e-09	-1.698929e+01	-3.088724e+02
2.900000e-07	-2.423902e-06	-4.678143e-09	-1.679215e+01	-3.073048e+02
3.000000e-07	-2.394647e-06	-4.686708e-09	-1.658948e+01	-3.056610e+02
3.100000e-07	-2.364681e-06	-4.650836e-09	-1.638189e+01	-3.039541e+02
3.200000e-07	-2.334030e-06	-4.625917e-09	-1.616954e+01	-3.021979e+02
3.300000e-07	-2.302566e-06	-4.588243e-09	-1.595157e+01	-3.004033e+02
3.400000e-07	-2.270334e-06	-4.554662e-09	-1.572828e+01	-2.985746e+02
3.500000e-07	-2.237519e-06	-4.522122e-09	-1.550094e+01	-2.967099e+02
3.600000e-07	-2.203976e-06	-4.508336e-09	-1.526856e+01	-2.948023e+02
3.700000e-07	-2.169283e-06	-4.495668e-09	-1.502822e+01	-2.928437e+02
3.800000e-07	-2.133461e-06	-4.448075e-09	-1.478005e+01	-2.908267e+02
3.900000e-07	-2.096967e-06	-4.407733e-09	-1.452723e+01	-2.887473e+02
4.000000e-07	-2.059876e-06	-4.402745e-09	-1.427028e+01	-2.866048e+02
4.100000e-07	-2.022058e-06	-4.361718e-09	-1.400829e+01	-2.844010e+02
4.200000e-07	-1.983510e-06	-4.302319e-09	-1.374124e+01	-2.821395e+02
4.300000e-07	-1.944230e-06	-4.278415e-09	-1.346911e+01	-2.798240e+02
4.400000e-07	-1.904247e-06	-4.251774e-09	-1.319212e+01	-2.774582e+02
4.500000e-07	-1.863819e-06	-4.216346e-09	-1.291205e+01	-2.750449e+02
4.600000e-07	-1.823061e-06	-4.174307e-09	-1.262969e+01	-2.725865e+02
4.700000e-07	-1.781616e-06	-4.133072e-09	-1.234257e+01	-2.700844e+02
4.800000e-07	-1.739053e-06	-4.092835e-09	-1.204770e+01	-2.675390e+02
4.900000e-07	-1.695451e-06	-4.055901e-09	-1.174564e+01	-2.649488e+02
5.000000e-07	-1.651246e-06	-4.017774e-09	-1.143939e+01	-2.623110e+02
5.100000e-07	-1.606665e-06	-3.972808e-09	-1.113055e+01	-2.596214e+02
5.200000e-07	-1.561647e-06	-3.925200e-09	-1.081868e+01	-2.568759e+02
5.300000e-07	-1.516047e-06	-3.889897e-09	-1.050277e+01	-2.540713e+02
5.400000e-07	-1.469871e-06	-3.854214e-09	-1.018288e+01	-2.512065e+02
5.500000e-07	-1.423195e-06	-3.797817e-09	-9.859520e+00	-2.482821e+02
5.600000e-07	-1.375999e-06	-3.747943e-09	-9.532558e+00	-2.452995e+02
5.700000e-07	-1.328265e-06	-3.708151e-09	-9.201870e+00	-2.422589e+02
5.800000e-07	-1.280086e-06	-3.666129e-09	-8.868100e+00	-2.391580e+02
5.900000e-07	-1.231595e-06	-3.613836e-09	-8.532162e+00	-2.359911e+02
6.000000e-07	-1.182810e-06	-3.560200e-09	-8.194195e+00	-2.327497e+02
6.100000e-07	-1.133504e-06	-3.511303e-09	-7.852616e+00	-2.294253e+02
6.200000e-07	-1.083480e-06	-3.463040e-09	-7.506065e+00	-2.260115e+02
6.300000e-07	-1.032783e-06	-3.409510e-09	-7.154850e+00	-2.225070e+02
6.400000e-07	-9.815097e-07	-3.346196e-09	-6.799640e+00	-2.189164e+02
6.500000e-07	-9.297755e-07	-3.287191e-09	-6.441239e+00	-2.152487e+02
6.600000e-07	-8.776828e-07	-3.235668e-09	-6.080355e+00	-2.115146e+02
6.700000e-07	-8.252964e-07	-3.183506e-09	-5.717436e+00	-2.077223e+02
6.800000e-07	-7.727009e-07	-3.122665e-09	-5.353068e+00	-2.038745e+02
6.900000e-07	-7.198393e-07	-3.058010e-09	-4.986857e+00	-1.999668e+02
7.000000e-07	-6.666638e-07	-2.995750e-09	-4.618471e+00	-1.959892e+02
7.100000e-07	-6.131929e-07	-2.935959e-09	-4.248038e+00	-1.919287e+02
7.200000e-07	-5.595090e-07	-2.872292e-09	-3.876130e+00	-1.877739e+02
7.300000e-07	-5.056608e-07	-2.802964e-09	-3.503085e+00	-1.835175e+02
7.400000e-07	-4.516117e-07	-2.734441e-09	-3.128647e+00	-1.791579e+02
7.500000e-07	-3.973919e-07	-2.666264e-09	-2.753026e+00	-1.746974e+02
7.600000e-07	-3.430782e-07	-2.598344e-09	-2.376755e+00	-1.701388e+02
7.700000e-07	-2.887223e-07	-2.526242e-09	-2.000192e+00	-1.654821e+02
7.800000e-07	-2.342974e-07	-2.452121e-09	-1.623150e+00	-1.607217e+02
7.900000e-07	-1.797866e-07	-2.379348e-09	-1.245514e+00	-1.558464e+02
8.000000e-07	-1.252272e-07	-2.304278e-09	-8.675410e-01	-1.508417e+02
8.100000e-07	-7.065368e-08	-2.224446e-09	-4.894700e-01	-1.456943e+02
8.200000e-07	-1.606327e-08	-2.140843e-09	-1.112821e-01	-1.403954e+02
8.300000e-07	3.851304e-08	-2.055552e-09	2.668081e-01	-1.349430e+02
8.400000e-07	9.305361e-08	-1.969902e-09	6.446509e-01	-1.293412e+02
8.500000e-07	1.475675e-07	-1.883585e-09	1.022309e+00	-1.235966e+02
8.600000e-07	2.020667e-07	-1.792924e-09	1.399865e+00	-1.177133e+02
8.700000e-07	2.564964e-07	-1.701271e-09	1.776940e+00	-1.116888e+02
8.800000e-07	3.108556e-07	-1.610258e-09	2.153525e+00	-1.055118e+02
8.900000e-07	3.651512e-07	-1.514643e-09	2.529671e+00	-9.916312e+01
9.000000e-07	4.193069e-07	-1.410736e-09	2.904848e+00	-9.261960e+01
9.100000e-07	4.733097e-07	-1.303490e-09	3.278965e+00	-8.585876e+01
9.200000e-07	5.271847e-07	-1.195915e-09	3.652197e+00	-7.886279e+01
9.300000e-07	5.808998e-07	-1.083991e-09	4.024320e+00	-7.162003e+01
9.400000e-07	6.343080e-07	-9.683911e-10	4.394318e+00	-6.412343e+01
9.500000e-07	6.873912e-07	-8.513646e-10	4.762065e+00	-5.636666e+01
9.600000e-07	7.402499e-07	-7.322325e-10	5.128256e+00	-4.833977e+01
9.700000e-07	7.929073e-07	-6.058687e-10	5.493053e+00	-4.002618e+01
9.800000e-07	8.453234e-07	-4.702523e-10	5.856177e+00	-3.140252e+01
9.900000e-07	8.974083e-07	-3.272387e-10	6.217008e+00	-2.244153e+01
1.000000e-06	9.491675e-07	-1.806558e-10	6.575582e+00	-1.311688e+01
1.010000e-06	1.000525e-06	-3.216217e-11	6.931376e+00	-3.408192e+00
1.020000e-06	1.051250e-06	1.210197e-10	7.282785e+00	6.695609e+00
1.030000e-06	1.101261e-06	2.812887e-10	7.629245e+00	1.719549e+01
1.040000e-06	1.150666e-06	4.488685e-10	7.971509e+00	2.808366e+01
1.050000e-06	1.199588e-06	6.218410e-10	8.310426e+00	3.934562e+01
1.060000e-06	1.248134e-06	8.006785e-10	8.646741e+00	5.096101e+01
1.070000e-06	1.296406e-06	9.849348e-10	8.981162e+00	6.290190e+01
1.080000e-06	1.344324e-06	1.172581e-09	9.313118e+00	7.512841e+01
1.090000e-06	1.391723e-06	1.361364e-09	9.641492e+00	8.758321e+01
1.100000e-06	1.438603e-06	1.550541e-09	9.966261e+00	1.001874e+02
1.110000e-06	1.484986e-06	1.741392e-09	1.028759e+01	1.128404e+02
1.120000e-06	1.530811e-06	1.931721e-09	1.060505e+01	1.254250e+02
1.130000e-06	1.576076e-06	2.119969e-09	1.091864e+01	1.378183e+02
1.140000e-06	1.620888e-06	2.306320e-09	1.122908e+01	1.499038e+02
1.150000e-06	1.665358e-06	2.488310e-09	1.153716e+01	1.615844e+02
1.160000e-06	1.709444e-06	2.661596e-09	1.184257e+01	1.727892e+02
1.170000e-06	1.752903e-06	2.823082e-09	1.214365e+01	1.834749e+02
1.180000e-06	1.795448e-06	2.973579e-09	1.243839e+01	1.936203e+02
1.190000e-06	1.836966e-06	3.116642e-09	1.272601e+01	2.032169e+02
1.200000e-06	1.877753e-06	3.253709e-09	1.300858e+01	2.122594e+02
1.210000e-06	1.918078e-06	3.382716e-09	1.328793e+01	2.207409e+02
1.220000e-06	1.957820e-06	3.502573e-09	1.356326e+01	2.286525e+02
1.230000e-06	1.996885e-06	3.615071e-09	1.383389e+01	2.359895e+02
1.240000e-06	2.035292e-06	3.719801e-09	1.409996e+01	2.427605e+02
1.250000e-06	2.072971e-06	3.812216e-09	1.436099e+01	2.489940e+02
1.260000e-06	2.109937e-06	3.894506e-09	1.461709e+01	2.547406e+02
1.270000e-06	2.146379e-06	3.973532e-09	1.486955e+01	2.600679e+02
1.280000e-06	2.182242e-06	4.050697e-09	1.511800e+01	2.650486e+02
1.290000e-06	2.217187e-06	4.122346e-09	1.536008e+01	2.697465e+02
1.300000e-06	2.251033e-06	4.187955e-09	1.559456e+01	2.742041e+02
1.310000e-06	2.283963e-06	4.251133e-09	1.582269e+01	2.784368e+02
1.320000e-06	2.316195e-06	4.312331e-09	1.604599e+01	2.824362e+02
1.330000e-06	2.347705e-06	4.368997e-09	1.626428e+01	2.861800e+02
1.340000e-06	2.378430e-06	4.418351e-09	1.647713e+01	2.896467e+02
1.350000e-06	2.408348e-06	4.462522e-09	1.668440e+01	2.928292e+02
1.360000e-06	2.437450e-06	4.503970e-09	1.688601e+01	2.957412e+02
1.370000e-06	2.465889e-06	4.542632e-09	1.708303e+01	2.984170e+02
1.380000e-06	2.493563e-06	4.579071e-09	1.727475e+01	3.009023e+02
1.390000e-06	2.520101e-06	4.614914e-09	1.745859e+01	3.032413e+02
1.400000e-06	2.545433e-06	4.649495e-09	1.763409e+01	3.054654e+02
1.410000e-06	2.569803e-06	4.681785e-09	1.780292e+01	3.075863e+02
1.420000e-06	2.593329e-06	4.712687e-09	1.796590e+01	3.095974e+02
1.430000e-06	2.615972e-06	4.741744e-09	1.812276e+01	3.114821e+02
1.440000e-06	2.637732e-06	4.766462e-09	1.827351e+01	3.132245e+02
1.450000e-06	2.658714e-06	4.785528e-09	1.841887e+01	3.148203e+02
1.460000e-06	2.678969e-06	4.803023e-09	1.855919e+01	3.162809e+02
1.470000e-06	2.698303e-06	4.821943e-09	1.869313e+01	3.176314e+02
1.480000e-06	2.716652e-06	4.843025e-09	1.882025e+01	3.189020e+02
1.490000e-06	2.734156e-06	4.864183e-09	1.894151e+01	3.201178e+02
1.500000e-06	2.750613e-06	4.884149e-09	1.905552e+01	3.212896e+02
1.510000e-06	2.765911e-06	4.903245e-09	1.916150e+01	3.224114e+02
1.520000e-06	2.780178e-06	4.918442e-09	1.926034e+01	3.234642e+02
1.530000e-06	2.793445e-06	4.929053e-09	1.935225e+01	3.244249e+02
1.540000e-06	2.805659e-06	4.938013e-09	1.943687e+01	3.252771e+02
1.550000e-06	2.816591e-06	4.946958e-09	1.951260e+01	3.260191e+02
1.560000e-06	2.826246e-06	4.956655e-09	1.957949e+01	3.266657e+02
1.570000e-06	2.834919e-06	4.968912e-09	1.963957e+01	3.272430e+02
1.580000e-06	2.842658e-06	4.984021e-09	1.969318e+01	3.277791e+02
1.590000e-06	2.849410e-06	4.997771e-09	1.973996e+01	3.282932e+02
1.600000e-06	2.855189e-06	5.005714e-09	1.977999e+01	3.287886e+02
1.610000e-06	2.860076e-06	5.009522e-09	1.981385e+01	3.292519e+02
1.620000e-06	2.864140e-06	5.013186e-09	1.984200e+01	3.296586e+02
1.630000e-06	2.867109e-06	5.016509e-09	1.986258e+01	3.299831e+02
1.640000e-06	2.868794e-06	5.019537e-09	1.987425e+01	3.302093e+02
1.650000e-06	2.869408e-06	5.024989e-09	1.987850e+01	3.303363e+02
1.660000e-06	2.869152e-06	5.030126e-09	1.987673e+01	3.303793e+02
1.670000e-06	2.868056e-06	5.029558e-09	1.986914e+01	3.303624e+02
1.680000e-06	2.866065e-06	5.026334e-09	1.985534e+01	3.303094e+02
1.690000e-06	2.863192e-06	5.025508e-09	1.983544e+01	3.302329e+02
1.700000e-06	2.859594e-06	5.025120e-09	1.981051e+01	3.301299e+02
1.710000e-06	2.855079e-06	5.022662e-09	1.977923e+01	3.299821e+02
1.720000e-06	2.849300e-06	5.020799e-09	1.973920e+01	3.297637e+02
1.730000e-06	2.842467e-06	5.023724e-09	1.969186e+01	3.294518e+02
1.740000e-06	2.834812e-06	4.992266e-09	1.963883e+01	3.290364e+02
1.750000e-06	2.825936e-06	4.949553e-09	1.957734e+01	3.285252e+02
1.760000e-06	2.815450e-06	4.977501e-09	1.950469e+01	3.279429e+02
1.770000e-06	2.803876e-06	5.050617e-09	1.942452e+01	3.273222e+02
1.780000e-06	2.792094e-06	5.006171e-09	1.934289e+01	3.266937e+02
1.790000e-06	2.779733e-06	4.900491e-09	1.925726e+01	3.260747e+02
1.800000e-06	2.765721e-06	4.947141e-09	1.916018e+01	3.254635e+02
1.810000e-06	2.750376e-06	5.002465e-09	1.905388e+01	3.248404e+02
1.820000e-06	2.734533e-06	4.889784e-09	1.894412e+01	3.241740e+02
1.830000e-06	2.717725e-06	4.869696e-09	1.882768e+01	3.234323e+02
1.840000e-06	2.699501e-06	5.002467e-09	1.870143e+01	3.225924e+02
1.850000e-06	2.680449e-06	4.926523e-09	1.856944e+01	3.216471e+02
1.860000e-06	2.660805e-06	4.807008e-09	1.843335e+01	3.206055e+02
1.870000e-06	2.639993e-06	4.926939e-09	1.828917e+01	3.194876e+02
1.880000e-06	2.618013e-06	4.901623e-09	1.813690e+01	3.183164e+02
1.890000e-06	2.595096e-06	4.732766e-09	1.797814e+01	3.171091e+02
1.900000e-06	2.571095e-06	4.823760e-09	1.781187e+01	3.158719e+02
1.910000e-06	2.546293e-06	4.882845e-09	1.764004e+01	3.145989e+02
1.920000e-06	2.520841e-06	4.752813e-09	1.746372e+01	3.132756e+02
1.930000e-06	2.494440e-06	4.745730e-09	1.728082e+01	3.118853e+02
1.940000e-06	2.467275e-06	4.777416e-09	1.709263e+01	3.104156e+02
1.950000e-06	2.439411e-06	4.707367e-09	1.689959e+01	3.088626e+02
1.960000e-06	2.410383e-06	4.680842e-09	1.669850e+01	3.072316e+02
1.970000e-06	2.380207e-06	4.661797e-09	1.648944e+01	3.055349e+02
1.980000e-06	2.349219e-06	4.631304e-09	1.627477e+01	3.037866e+02
1.990000e-06	2.317547e-06	4.633116e-09	1.605535e+01	3.019983e+02
2.000000e-06	2.285148e-06	4.585799e-09	1.583090e+01	3.001757e+02
2.010000e-06	2.251912e-06	4.558038e-09	1.560065e+01	2.983178e+02
2.020000e-06	2.217819e-06	4.533854e-09	1.536447e+01	2.964186e+02
2.030000e-06	2.183091e-06	4.469478e-09	1.512387e+01	2.944697e+02
2.040000e-06	2.147763e-06	4.471487e-09	1.487913e+01	2.924636e+02
2.050000e-06	2.111745e-06	4.449209e-09	1.462961e+01	2.903955e+02
2.060000e-06	2.074829e-06	4.374432e-09	1.437387e+01	2.882641e+02
2.070000e-06	2.036755e-06	4.369410e-09	1.411010e+01	2.860711e+02
2.080000e-06	1.997806e-06	4.341590e-09	1.384027e+01	2.838196e+02
2.090000e-06	1.958305e-06	4.283735e-09	1.356662e+01	2.815136e+02
2.100000e-06	1.918248e-06	4.262539e-09	1.328911e+01	2.791565e+02
2.110000e-06	1.877512e-06	4.215622e-09	1.300691e+01	2.767515e+02
2.120000e-06	1.836130e-06	4.181060e-09	1.272022e+01	2.743010e+02
2.130000e-06	1.794168e-06	4.152543e-09	1.242952e+01	2.718067e+02
2.140000e-06	1.751635e-06	4.102885e-09	1.213487e+01	2.692691e+02
2.150000e-06	1.708589e-06	4.068922e-09	1.183665e+01	2.666871e+02
2.160000e-06	1.665144e-06	4.018561e-09	1.153568e+01	2.640581e+02
2.170000e-06	1.621204e-06	3.977541e-09	1.123128e+01	2.613781e+02
2.180000e-06	1.576578e-06	3.949329e-09	1.092212e+01	2.586429e+02
2.190000e-06	1.531292e-06	3.895838e-09	1.060839e+01	2.558490e+02
2.200000e-06	1.485478e-06	3.855006e-09	1.029100e+01	2.529950e+02
2.210000e-06	1.439294e-06	3.819845e-09	9.971050e+00	2.500811e+02
2.220000e-06	1.392721e-06	3.766988e-09	9.648403e+00	2.471089e+02
2.230000e-06	1.345627e-06	3.719113e-09	9.322145e+00	2.440787e+02
2.240000e-06	1.297952e-06	3.668624e-09	8.991870e+00	2.409890e+02
2.250000e-06	1.249630e-06	3.624389e-09	8.657104e+00	2.378344e+02
2.260000e-06	1.200729e-06	3.580561e-09	8.318334e+00	2.346070e+02
2.270000e-06	1.151451e-06	3.524962e-09	7.976950e+00	2.312980e+02
2.280000e-06	1.101820e-06	3.475115e-09	7.633116e+00	2.279005e+02
2.290000e-06	1.051765e-06	3.422001e-09	7.286353e+00	2.244120e+02
2.300000e-06	1.001203e-06	3.369779e-09	6.936072e+00	2.208363e+02
2.310000e-06	9.502388e-07	3.313363e-09	6.583004e+00	2.171816e+02
2.320000e-06	8.990469e-07	3.249979e-09	6.228360e+00	2.134586e+02
2.330000e-06	8.476421e-07	3.194640e-09	5.872241e+00	2.096764e+02
2.340000e-06	7.959586e-07	3.140532e-09	5.514191e+00	2.058386e+02
2.350000e-06	7.438758e-07	3.085242e-09	5.153375e+00	2.019422e+02
2.360000e-06	6.912871e-07	3.024586e-09	4.789055e+00	1.979780e+02
2.370000e-06	6.381921e-07	2.959322e-09	4.421226e+00	1.939333e+02
2.380000e-06	5.846619e-07	2.901264e-09	4.050383e+00	1.897960e+02
2.390000e-06	5.308427e-07	2.842172e-09	3.677538e+00	1.855581e+02
2.400000e-06	4.767976e-07	2.775802e-09	3.303128e+00	1.812169e+02
2.410000e-06	4.224557e-07	2.708015e-09	2.926662e+00	1.767741e+02
2.420000e-06	3.678912e-07	2.639004e-09	2.548653e+00	1.722330e+02
2.430000e-06	3.131642e-07	2.569829e-09	2.169519e+00	1.675941e+02
2.440000e-06	2.583058e-07	2.494808e-09	1.789474e+00	1.628529e+02
2.450000e-06	2.033796e-07	2.417397e-09	1.408960e+00	1.579991e+02
2.460000e-06	1.484160e-07	2.344036e-09	1.028187e+00	1.530186e+02
2.470000e-06	9.345036e-08	2.269905e-09	6.473994e-01	1.478975e+02
2.480000e-06	3.845935e-08	2.193271e-09	2.664362e-01	1.426260e+02
2.490000e-06	-1.658929e-08	2.109449e-09	-1.149262e-01	1.372009e+02
2.500000e-06	-7.167323e-08	2.021200e-09	-4.965332e-01	1.316254e+02
2.510000e-06	-1.267402e-07	1.934282e-09	-8.780224e-01	1.259059e+02
2.520000e-06	-1.817700e-07	1.845440e-09	-1.259254e+00	1.200473e+02
2.530000e-06	-2.367613e-07	1.753697e-09	-1.640220e+00	1.140486e+02
2.540000e-06	-2.916362e-07	1.660071e-09	-2.020379e+00	1.079001e+02
2.550000e-06	-3.463696e-07	1.566724e-09	-2.399557e+00	1.015837e+02
2.560000e-06	-4.009550e-07	1.472798e-09	-2.777710e+00	9.507672e+01
2.570000e-06	-4.552993e-07	1.371889e-09	-3.154193e+00	8.835618e+01
2.580000e-06	-5.093936e-07	1.262256e-09	-3.528944e+00	8.140325e+01
2.590000e-06	-5.631747e-07	1.149794e-09	-3.901526e+00	7.420519e+01
2.600000e-06	-6.165325e-07	1.036648e-09	-4.271174e+00	6.675436e+01
2.610000e-06	-6.694589e-07	9.209374e-10	-4.637835e+00	5.904465e+01
2.620000e-06	-7.220078e-07	8.012071e-10	-5.001879e+00	5.106703e+01
2.630000e-06	-7.741968e-07	6.768834e-10	-5.363431e+00	4.280619e+01
2.640000e-06	-8.260375e-07	5.476432e-10	-5.722570e+00	3.423987e+01
2.650000e-06	-8.775537e-07	4.142196e-10	-6.079460e+00	2.534116e+01
2.660000e-06	-9.288434e-07	2.743123e-10	-6.434782e+00	1.608320e+01
2.670000e-06	-9.799079e-07	1.260274e-10	-6.788543e+00	6.444219e+00
2.680000e-06	-1.030623e-06	-2.737617e-11	-7.139881e+00	-3.588651e+00
2.690000e-06	-1.080883e-06	-1.853361e-10	-7.488070e+00	-1.401813e+01
2.700000e-06	-1.130631e-06	-3.469790e-10	-7.832714e+00	-2.483783e+01
2.710000e-06	-1.179989e-06	-5.141364e-10	-8.174653e+00	-3.603434e+01
2.720000e-06	-1.228935e-06	-6.890649e-10	-8.513739e+00	-4.758838e+01
2.730000e-06	-1.277171e-06	-8.722088e-10	-8.847905e+00	-5.947364e+01
2.740000e-06	-1.324610e-06	-1.061587e-09	-9.176546e+00	-7.165275e+01
2.750000e-06	-1.371432e-06	-1.253959e-09	-9.500919e+00	-8.407189e+01
2.760000e-06	-1.417641e-06	-1.448381e-09	-9.821045e+00	-9.665618e+01
2.770000e-06	-1.463409e-06	-1.642817e-09	-1.013811e+01	-1.093086e+02
2.780000e-06	-1.508923e-06	-1.835485e-09	-1.045342e+01	-1.219145e+02
2.790000e-06	-1.554071e-06	-2.024007e-09	-1.076619e+01	-1.343508e+02
2.800000e-06	-1.598655e-06	-2.207113e-09	-1.107506e+01	-1.464991e+02
2.810000e-06	-1.642625e-06	-2.386491e-09	-1.137967e+01	-1.582580e+02
2.820000e-06	-1.686143e-06	-2.562561e-09	-1.168115e+01	-1.695516e+02
2.830000e-06	-1.729289e-06	-2.730853e-09	-1.198006e+01	-1.803321e+02
2.840000e-06	-1.771955e-06	-2.886805e-09	-1.227563e+01	-1.905748e+02
2.850000e-06	-1.814012e-06	-3.033006e-09	-1.256700e+01	-2.002697e+02
2.860000e-06	-1.855465e-06	-3.173054e-09	-1.285417e+01	-2.094116e+02
2.870000e-06	-1.896296e-06	-3.305911e-09	-1.313704e+01	-2.179940e+02
2.880000e-06	-1.936453e-06	-3.429391e-09	-1.341523e+01	-2.260078e+02
2.890000e-06	-1.976029e-06	-3.543585e-09	-1.368941e+01	-2.334473e+02
2.900000e-06	-2.015078e-06	-3.650597e-09	-1.395993e+01	-2.403179e+02
2.910000e-06	-2.053373e-06	-3.751931e-09	-1.422523e+01	-2.466442e+02
2.920000e-06	-2.090673e-06	-3.844082e-09	-1.448363e+01	-2.524732e+02
2.930000e-06	-2.126964e-06	-3.924909e-09	-1.473505e+01	-2.578699e+02
2.940000e-06	-2.162512e-06	-3.999739e-09	-1.498131e+01	-2.629074e+02
