# Temperatura_=_23.27
# Concentracion g/m^3_=_13400.0
# C_Vs_to_Am_M_A/Vsm_=_65563218390.804596
# pendiente_HvsI_1/m_=_3716.3
# ordenada_HvsI_A/m_=_1297.0
# frecuencia_Hz_=_300838.6099424436

Tiempo_(s)	Campo_(V.s)	Magnetizacion_(V.s)	Campo_(kA/m)	Magnetizacion_(A/m)
0.000000e+00	-2.860546e-06	-5.175770e-09	-1.980146e+01	-3.383881e+02
1.000000e-08	-2.860060e-06	-5.172346e-09	-1.979809e+01	-3.385005e+02
2.000000e-08	-2.858772e-06	-5.166814e-09	-1.978917e+01	-3.385758e+02
3.000000e-08	-2.856379e-06	-5.166332e-09	-1.977261e+01	-3.385862e+02
4.000000e-08	-2.852816e-06	-5.168179e-09	-1.974794e+01	-3.385050e+02
5.000000e-08	-2.848331e-06	-5.166499e-09	-1.971690e+01	-3.383164e+02
6.000000e-08	-2.843002e-06	-5.160793e-09	-1.968001e+01	-3.380209e+02
7.000000e-08	-2.836711e-06	-5.158243e-09	-1.963646e+01	-3.376353e+02
8.000000e-08	-2.829403e-06	-5.174360e-09	-1.958588e+01	-3.371867e+02
9.000000e-08	-2.821029e-06	-5.159020e-09	-1.952791e+01	-3.367026e+02
1.000000e-07	-2.811315e-06	-5.112279e-09	-1.946066e+01	-3.362024e+02
1.100000e-07	-2.800254e-06	-5.086760e-09	-1.938410e+01	-3.356910e+02
1.200000e-07	-2.788250e-06	-5.155907e-09	-1.930100e+01	-3.351593e+02
1.300000e-07	-2.775429e-06	-5.158891e-09	-1.921225e+01	-3.345895e+02
1.400000e-07	-2.761666e-06	-5.030041e-09	-1.911698e+01	-3.339639e+02
1.500000e-07	-2.746931e-06	-5.083320e-09	-1.901498e+01	-3.332722e+02
1.600000e-07	-2.731050e-06	-5.161163e-09	-1.890505e+01	-3.325159e+02
1.700000e-07	-2.713786e-06	-5.075031e-09	-1.878555e+01	-3.317063e+02
1.800000e-07	-2.695470e-06	-5.021199e-09	-1.865876e+01	-3.308586e+02
1.900000e-07	-2.676472e-06	-5.097523e-09	-1.852724e+01	-3.299836e+02
2.000000e-07	-2.656723e-06	-5.046452e-09	-1.839054e+01	-3.290812e+02
2.100000e-07	-2.636096e-06	-4.944560e-09	-1.824775e+01	-3.281386e+02
2.200000e-07	-2.614709e-06	-5.041352e-09	-1.809971e+01	-3.271341e+02
2.300000e-07	-2.592493e-06	-5.032989e-09	-1.794592e+01	-3.260450e+02
2.400000e-07	-2.569280e-06	-4.922894e-09	-1.778523e+01	-3.248562e+02
2.500000e-07	-2.545195e-06	-4.961821e-09	-1.761851e+01	-3.235663e+02
2.600000e-07	-2.520274e-06	-4.953408e-09	-1.744600e+01	-3.221877e+02
2.700000e-07	-2.494428e-06	-4.876317e-09	-1.726709e+01	-3.207417e+02
2.800000e-07	-2.467523e-06	-4.891171e-09	-1.708085e+01	-3.192490e+02
2.900000e-07	-2.439565e-06	-4.852169e-09	-1.688731e+01	-3.177209e+02
3.000000e-07	-2.410680e-06	-4.829924e-09	-1.668737e+01	-3.161546e+02
3.100000e-07	-2.381014e-06	-4.839893e-09	-1.648200e+01	-3.145343e+02
3.200000e-07	-2.350645e-06	-4.788459e-09	-1.627179e+01	-3.128379e+02
3.300000e-07	-2.319501e-06	-4.751576e-09	-1.605620e+01	-3.110477e+02
3.400000e-07	-2.287573e-06	-4.750306e-09	-1.583518e+01	-3.091591e+02
3.500000e-07	-2.254993e-06	-4.689024e-09	-1.560965e+01	-3.071841e+02
3.600000e-07	-2.221796e-06	-4.664822e-09	-1.537986e+01	-3.051481e+02
3.700000e-07	-2.187697e-06	-4.680236e-09	-1.514382e+01	-3.030807e+02
3.800000e-07	-2.152427e-06	-4.598939e-09	-1.489967e+01	-3.010039e+02
3.900000e-07	-2.116203e-06	-4.578709e-09	-1.464891e+01	-2.989229e+02
4.000000e-07	-2.079335e-06	-4.588408e-09	-1.439370e+01	-2.968232e+02
4.100000e-07	-2.041823e-06	-4.520225e-09	-1.413404e+01	-2.946758e+02
4.200000e-07	-2.003609e-06	-4.457794e-09	-1.386951e+01	-2.924486e+02
4.300000e-07	-1.964687e-06	-4.451737e-09	-1.360008e+01	-2.901195e+02
4.400000e-07	-1.925021e-06	-4.416254e-09	-1.332550e+01	-2.876864e+02
4.500000e-07	-1.884745e-06	-4.372916e-09	-1.304670e+01	-2.851692e+02
4.600000e-07	-1.844059e-06	-4.340933e-09	-1.276506e+01	-2.826030e+02
4.700000e-07	-1.802924e-06	-4.296758e-09	-1.248032e+01	-2.800252e+02
4.800000e-07	-1.760943e-06	-4.260402e-09	-1.218971e+01	-2.774604e+02
4.900000e-07	-1.717860e-06	-4.212404e-09	-1.189148e+01	-2.749102e+02
5.000000e-07	-1.673939e-06	-4.165834e-09	-1.158745e+01	-2.723513e+02
5.100000e-07	-1.629460e-06	-4.123787e-09	-1.127955e+01	-2.697432e+02
5.200000e-07	-1.584543e-06	-4.096502e-09	-1.096863e+01	-2.670430e+02
5.300000e-07	-1.539199e-06	-4.054361e-09	-1.065474e+01	-2.642210e+02
5.400000e-07	-1.493307e-06	-4.011263e-09	-1.033706e+01	-2.612718e+02
5.500000e-07	-1.446849e-06	-3.957437e-09	-1.001547e+01	-2.582159e+02
5.600000e-07	-1.399865e-06	-3.898538e-09	-9.690231e+00	-2.550911e+02
5.700000e-07	-1.352307e-06	-3.859711e-09	-9.361028e+00	-2.519371e+02
5.800000e-07	-1.304287e-06	-3.813326e-09	-9.028617e+00	-2.487792e+02
5.900000e-07	-1.255937e-06	-3.759929e-09	-8.693930e+00	-2.456172e+02
6.000000e-07	-1.207279e-06	-3.712789e-09	-8.357102e+00	-2.424244e+02
6.100000e-07	-1.158187e-06	-3.672192e-09	-8.017279e+00	-2.391565e+02
6.200000e-07	-1.108495e-06	-3.611547e-09	-7.673292e+00	-2.357684e+02
6.300000e-07	-1.058112e-06	-3.551698e-09	-7.324531e+00	-2.322308e+02
6.400000e-07	-1.007128e-06	-3.494929e-09	-6.971604e+00	-2.285421e+02
6.500000e-07	-9.556237e-07	-3.438114e-09	-6.615079e+00	-2.247288e+02
6.600000e-07	-9.036228e-07	-3.381300e-09	-6.255115e+00	-2.208364e+02
6.700000e-07	-8.512716e-07	-3.320665e-09	-5.892726e+00	-2.169126e+02
6.800000e-07	-7.986683e-07	-3.260323e-09	-5.528593e+00	-2.129897e+02
6.900000e-07	-7.458525e-07	-3.196470e-09	-5.162988e+00	-2.090729e+02
7.000000e-07	-6.928402e-07	-3.136761e-09	-4.796023e+00	-2.051389e+02
7.100000e-07	-6.395944e-07	-3.073621e-09	-4.427441e+00	-2.011441e+02
7.200000e-07	-5.860911e-07	-3.011738e-09	-4.057077e+00	-1.970406e+02
7.300000e-07	-5.323395e-07	-2.945332e-09	-3.684994e+00	-1.927929e+02
7.400000e-07	-4.783474e-07	-2.876061e-09	-3.311247e+00	-1.883887e+02
7.500000e-07	-4.241645e-07	-2.804403e-09	-2.936178e+00	-1.838410e+02
7.600000e-07	-3.698293e-07	-2.730991e-09	-2.560056e+00	-1.791793e+02
7.700000e-07	-3.154058e-07	-2.658703e-09	-2.183322e+00	-1.744360e+02
7.800000e-07	-2.609035e-07	-2.585153e-09	-1.806043e+00	-1.696307e+02
7.900000e-07	-2.063270e-07	-2.513866e-09	-1.428250e+00	-1.647608e+02
8.000000e-07	-1.516967e-07	-2.437981e-09	-1.050084e+00	-1.598010e+02
8.100000e-07	-9.702968e-08	-2.361570e-09	-6.716650e-01	-1.547108e+02
8.200000e-07	-4.233367e-08	-2.279900e-09	-2.930449e-01	-1.494487e+02
8.300000e-07	1.239141e-08	-2.194821e-09	8.577662e-02	-1.439859e+02
8.400000e-07	6.706506e-08	-2.105155e-09	4.642421e-01	-1.383144e+02
8.500000e-07	1.217011e-07	-2.013175e-09	8.424469e-01	-1.324473e+02
8.600000e-07	1.763001e-07	-1.921511e-09	1.220396e+00	-1.264106e+02
8.700000e-07	2.308593e-07	-1.826919e-09	1.598069e+00	-1.202301e+02
8.800000e-07	2.853791e-07	-1.733769e-09	1.975469e+00	-1.139186e+02
8.900000e-07	3.398029e-07	-1.636977e-09	2.352205e+00	-1.074680e+02
9.000000e-07	3.941241e-07	-1.535183e-09	2.728231e+00	-1.008500e+02
9.100000e-07	4.483602e-07	-1.427445e-09	3.103667e+00	-9.402295e+01
9.200000e-07	5.024244e-07	-1.319718e-09	3.477914e+00	-8.694377e+01
9.300000e-07	5.562349e-07	-1.207634e-09	3.850405e+00	-7.957921e+01
9.400000e-07	6.098118e-07	-1.088851e-09	4.221278e+00	-7.191220e+01
9.500000e-07	6.631646e-07	-9.662199e-10	4.590600e+00	-6.394134e+01
9.600000e-07	7.162394e-07	-8.409114e-10	4.957998e+00	-5.567389e+01
9.700000e-07	7.690382e-07	-7.128704e-10	5.323486e+00	-4.711538e+01
9.800000e-07	8.216113e-07	-5.768803e-10	5.687410e+00	-3.825991e+01
9.900000e-07	8.739472e-07	-4.352234e-10	6.049693e+00	-2.908505e+01
1.000000e-06	9.259411e-07	-2.884559e-10	6.409609e+00	-1.955304e+01
1.010000e-06	9.774908e-07	-1.353686e-10	6.766449e+00	-9.618081e+00
1.020000e-06	1.028449e-06	2.820573e-11	7.119195e+00	7.630754e-01
1.030000e-06	1.078716e-06	1.964824e-10	7.467156e+00	1.162057e+01
1.040000e-06	1.128343e-06	3.681112e-10	7.810688e+00	2.296402e+01
1.050000e-06	1.177454e-06	5.481886e-10	8.150646e+00	3.477975e+01
1.060000e-06	1.226220e-06	7.357487e-10	8.488216e+00	4.703243e+01
1.070000e-06	1.274736e-06	9.276032e-10	8.824058e+00	5.966920e+01
1.080000e-06	1.322937e-06	1.121452e-09	9.157720e+00	7.262399e+01
1.090000e-06	1.370654e-06	1.322231e-09	9.488025e+00	8.582032e+01
1.100000e-06	1.417831e-06	1.526624e-09	9.814601e+00	9.917188e+01
1.110000e-06	1.464527e-06	1.731904e-09	1.013784e+01	1.125819e+02
1.120000e-06	1.510726e-06	1.932959e-09	1.045765e+01	1.259430e+02
1.130000e-06	1.556359e-06	2.128799e-09	1.077353e+01	1.391391e+02
1.140000e-06	1.601448e-06	2.322952e-09	1.108564e+01	1.520504e+02
1.150000e-06	1.646162e-06	2.516359e-09	1.139517e+01	1.645613e+02
1.160000e-06	1.690521e-06	2.702913e-09	1.170223e+01	1.765691e+02
1.170000e-06	1.734232e-06	2.874869e-09	1.200481e+01	1.879920e+02
1.180000e-06	1.777096e-06	3.035630e-09	1.230153e+01	1.987737e+02
1.190000e-06	1.819025e-06	3.188695e-09	1.259177e+01	2.088848e+02
1.200000e-06	1.860180e-06	3.334086e-09	1.287666e+01	2.183195e+02
1.210000e-06	1.900816e-06	3.466694e-09	1.315795e+01	2.270912e+02
1.220000e-06	1.940919e-06	3.587251e-09	1.343555e+01	2.352262e+02
1.230000e-06	1.980386e-06	3.699700e-09	1.370875e+01	2.427587e+02
1.240000e-06	2.019140e-06	3.807590e-09	1.397702e+01	2.497279e+02
1.250000e-06	2.057159e-06	3.907092e-09	1.424020e+01	2.561757e+02
1.260000e-06	2.094459e-06	3.994946e-09	1.449840e+01	2.621464e+02
1.270000e-06	2.131194e-06	4.076781e-09	1.475269e+01	2.676854e+02
1.280000e-06	2.167409e-06	4.157783e-09	1.500338e+01	2.728380e+02
1.290000e-06	2.202780e-06	4.233884e-09	1.524823e+01	2.776467e+02
1.300000e-06	2.237059e-06	4.299055e-09	1.548551e+01	2.821493e+02
1.310000e-06	2.270352e-06	4.357580e-09	1.571598e+01	2.863762e+02
1.320000e-06	2.302911e-06	4.416495e-09	1.594136e+01	2.903500e+02
1.330000e-06	2.334772e-06	4.475247e-09	1.616191e+01	2.940858e+02
1.340000e-06	2.365859e-06	4.527497e-09	1.637710e+01	2.975929e+02
1.350000e-06	2.396158e-06	4.573938e-09	1.658683e+01	3.008774e+02
1.360000e-06	2.425651e-06	4.619239e-09	1.679099e+01	3.039442e+02
1.370000e-06	2.454459e-06	4.662968e-09	1.699041e+01	3.067989e+02
1.380000e-06	2.482578e-06	4.700977e-09	1.718506e+01	3.094495e+02
1.390000e-06	2.509650e-06	4.732849e-09	1.737246e+01	3.119067e+02
1.400000e-06	2.535523e-06	4.764053e-09	1.755156e+01	3.141844e+02
1.410000e-06	2.560390e-06	4.795994e-09	1.772369e+01	3.162993e+02
1.420000e-06	2.584373e-06	4.827334e-09	1.788971e+01	3.182702e+02
1.430000e-06	2.607492e-06	4.856566e-09	1.804975e+01	3.201169e+02
1.440000e-06	2.629685e-06	4.882957e-09	1.820337e+01	3.218576e+02
1.450000e-06	2.651014e-06	4.906424e-09	1.835102e+01	3.235063e+02
1.460000e-06	2.671656e-06	4.927234e-09	1.849391e+01	3.250710e+02
1.470000e-06	2.691501e-06	4.945664e-09	1.863128e+01	3.265521e+02
1.480000e-06	2.710328e-06	4.964381e-09	1.876160e+01	3.279440e+02
1.490000e-06	2.728229e-06	4.985804e-09	1.888552e+01	3.292378e+02
1.500000e-06	2.745223e-06	5.006295e-09	1.900316e+01	3.304258e+02
1.510000e-06	2.761081e-06	5.025001e-09	1.911293e+01	3.315062e+02
1.520000e-06	2.775755e-06	5.042336e-09	1.921450e+01	3.324853e+02
1.530000e-06	2.789420e-06	5.056076e-09	1.930910e+01	3.333773e+02
1.540000e-06	2.802160e-06	5.064533e-09	1.939729e+01	3.342012e+02
1.550000e-06	2.813710e-06	5.070920e-09	1.947724e+01	3.349746e+02
1.560000e-06	2.823923e-06	5.078523e-09	1.954794e+01	3.357081e+02
1.570000e-06	2.832986e-06	5.089369e-09	1.961067e+01	3.364017e+02
1.580000e-06	2.841122e-06	5.103879e-09	1.966699e+01	3.370443e+02
1.590000e-06	2.848354e-06	5.118976e-09	1.971706e+01	3.376184e+02
1.600000e-06	2.854592e-06	5.130055e-09	1.976024e+01	3.381071e+02
1.610000e-06	2.859948e-06	5.134596e-09	1.979732e+01	3.385011e+02
1.620000e-06	2.864543e-06	5.136230e-09	1.982912e+01	3.388038e+02
1.630000e-06	2.868085e-06	5.138034e-09	1.985364e+01	3.390312e+02
1.640000e-06	2.870333e-06	5.138759e-09	1.986920e+01	3.392070e+02
1.650000e-06	2.871478e-06	5.140697e-09	1.987713e+01	3.393546e+02
1.660000e-06	2.871676e-06	5.144832e-09	1.987850e+01	3.394879e+02
1.670000e-06	2.870938e-06	5.147998e-09	1.987339e+01	3.396058e+02
1.680000e-06	2.869284e-06	5.152486e-09	1.986194e+01	3.396916e+02
1.690000e-06	2.866800e-06	5.155428e-09	1.984475e+01	3.397188e+02
1.700000e-06	2.863575e-06	5.155749e-09	1.982242e+01	3.396595e+02
1.710000e-06	2.859461e-06	5.151589e-09	1.979394e+01	3.394949e+02
1.720000e-06	2.854175e-06	5.144390e-09	1.975735e+01	3.392219e+02
1.730000e-06	2.847790e-06	5.131089e-09	1.971316e+01	3.388540e+02
1.740000e-06	2.840547e-06	5.101352e-09	1.966302e+01	3.384168e+02
1.750000e-06	2.832250e-06	5.119731e-09	1.960558e+01	3.379387e+02
1.760000e-06	2.822454e-06	5.162608e-09	1.953777e+01	3.374415e+02
1.770000e-06	2.811324e-06	5.109737e-09	1.946073e+01	3.369333e+02
1.780000e-06	2.799601e-06	5.065850e-09	1.937958e+01	3.364076e+02
1.790000e-06	2.787554e-06	5.082472e-09	1.929619e+01	3.358481e+02
1.800000e-06	2.774380e-06	5.150908e-09	1.920499e+01	3.352361e+02
1.810000e-06	2.759623e-06	5.035979e-09	1.910284e+01	3.345593e+02
1.820000e-06	2.744024e-06	5.006160e-09	1.899486e+01	3.338166e+02
1.830000e-06	2.727680e-06	5.160112e-09	1.888172e+01	3.330176e+02
1.840000e-06	2.710060e-06	5.088263e-09	1.875975e+01	3.321773e+02
1.850000e-06	2.691374e-06	4.988401e-09	1.863040e+01	3.313082e+02
1.860000e-06	2.672064e-06	5.088988e-09	1.849673e+01	3.304128e+02
1.870000e-06	2.651775e-06	5.094739e-09	1.835629e+01	3.294808e+02
1.880000e-06	2.630233e-06	4.952823e-09	1.820717e+01	3.284921e+02
1.890000e-06	2.607701e-06	5.004426e-09	1.805119e+01	3.274232e+02
1.900000e-06	2.584198e-06	5.047511e-09	1.788850e+01	3.262568e+02
1.910000e-06	2.559786e-06	4.935534e-09	1.771951e+01	3.249884e+02
1.920000e-06	2.534641e-06	4.939912e-09	1.754545e+01	3.236276e+02
1.930000e-06	2.508690e-06	4.965444e-09	1.736581e+01	3.221946e+02
1.940000e-06	2.481955e-06	4.876036e-09	1.718075e+01	3.207109e+02
1.950000e-06	2.454527e-06	4.912897e-09	1.699088e+01	3.191906e+02
1.960000e-06	2.425993e-06	4.866908e-09	1.679336e+01	3.176339e+02
1.970000e-06	2.396187e-06	4.786952e-09	1.658704e+01	3.160274e+02
1.980000e-06	2.365499e-06	4.849581e-09	1.637461e+01	3.143495e+02
1.990000e-06	2.334050e-06	4.784633e-09	1.615691e+01	3.125808e+02
2.000000e-06	2.301879e-06	4.720593e-09	1.593422e+01	3.107133e+02
2.010000e-06	2.268951e-06	4.776775e-09	1.570628e+01	3.087554e+02
2.020000e-06	2.235185e-06	4.684980e-09	1.547254e+01	3.067304e+02
2.030000e-06	2.200759e-06	4.622649e-09	1.523423e+01	3.046679e+02
2.040000e-06	2.165744e-06	4.675633e-09	1.499185e+01	3.025925e+02
2.050000e-06	2.130020e-06	4.572550e-09	1.474456e+01	3.005134e+02
2.060000e-06	2.093472e-06	4.523762e-09	1.449156e+01	2.984203e+02
2.070000e-06	2.055934e-06	4.564232e-09	1.423171e+01	2.962863e+02
2.080000e-06	2.017405e-06	4.499596e-09	1.396501e+01	2.940790e+02
2.090000e-06	1.978170e-06	4.453554e-09	1.369342e+01	2.917732e+02
2.100000e-06	1.938352e-06	4.429052e-09	1.341779e+01	2.893618e+02
2.110000e-06	1.897914e-06	4.379753e-09	1.313786e+01	2.868605e+02
2.120000e-06	1.856848e-06	4.345304e-09	1.285359e+01	2.843019e+02
2.130000e-06	1.815172e-06	4.292516e-09	1.256510e+01	2.817243e+02
2.140000e-06	1.772925e-06	4.258311e-09	1.227265e+01	2.791561e+02
2.150000e-06	1.730190e-06	4.246590e-09	1.197683e+01	2.766044e+02
2.160000e-06	1.687050e-06	4.194209e-09	1.167821e+01	2.740508e+02
2.170000e-06	1.643370e-06	4.146814e-09	1.137584e+01	2.714575e+02
2.180000e-06	1.599014e-06	4.102324e-09	1.106880e+01	2.687806e+02
2.190000e-06	1.554029e-06	4.058156e-09	1.075740e+01	2.659865e+02
2.200000e-06	1.508535e-06	4.020152e-09	1.044248e+01	2.630642e+02
2.210000e-06	1.462663e-06	3.976788e-09	1.012494e+01	2.600288e+02
2.220000e-06	1.416343e-06	3.940935e-09	9.804303e+00	2.569156e+02
2.230000e-06	1.369485e-06	3.879981e-09	9.479939e+00	2.537655e+02
2.240000e-06	1.322005e-06	3.830126e-09	9.151267e+00	2.506079e+02
2.250000e-06	1.273882e-06	3.786709e-09	8.818146e+00	2.474487e+02
2.260000e-06	1.225241e-06	3.723269e-09	8.481440e+00	2.442662e+02
2.270000e-06	1.176182e-06	3.681229e-09	8.141840e+00	2.410189e+02
2.280000e-06	1.126671e-06	3.643694e-09	7.799114e+00	2.376602e+02
2.290000e-06	1.076681e-06	3.588086e-09	7.453070e+00	2.341563e+02
2.300000e-06	1.026259e-06	3.530826e-09	7.104033e+00	2.304991e+02
2.310000e-06	9.754526e-07	3.467948e-09	6.752341e+00	2.267095e+02
2.320000e-06	9.243725e-07	3.407407e-09	6.398750e+00	2.228303e+02
2.330000e-06	8.730085e-07	3.351071e-09	6.043195e+00	2.189101e+02
2.340000e-06	8.213157e-07	3.289115e-09	5.685364e+00	2.149860e+02
2.350000e-06	7.692365e-07	3.236603e-09	5.324858e+00	2.110694e+02
2.360000e-06	7.166897e-07	3.178330e-09	4.961115e+00	2.071428e+02
2.370000e-06	6.636575e-07	3.116693e-09	4.594012e+00	2.031655e+02
2.380000e-06	6.101628e-07	3.056341e-09	4.223708e+00	1.990894e+02
2.390000e-06	5.562840e-07	2.993001e-09	3.850744e+00	1.948750e+02
2.400000e-06	5.021303e-07	2.931572e-09	3.475878e+00	1.905045e+02
2.410000e-06	4.477882e-07	2.863502e-09	3.099708e+00	1.859858e+02
2.420000e-06	3.932618e-07	2.796073e-09	2.722262e+00	1.813461e+02
2.430000e-06	3.385810e-07	2.725181e-09	2.343747e+00	1.766185e+02
2.440000e-06	2.837863e-07	2.647345e-09	1.964444e+00	1.718262e+02
2.450000e-06	2.288958e-07	2.572728e-09	1.584477e+00	1.669721e+02
2.460000e-06	1.739720e-07	2.501471e-09	1.204280e+00	1.620351e+02
2.470000e-06	1.190501e-07	2.427105e-09	8.240964e-01	1.569769e+02
2.480000e-06	6.409283e-08	2.346788e-09	4.436675e-01	1.517551e+02
2.490000e-06	9.095205e-09	2.262876e-09	6.295941e-02	1.463372e+02
2.500000e-06	-4.589876e-08	2.180615e-09	-3.177233e-01	1.407104e+02
2.510000e-06	-1.009006e-07	2.094754e-09	-6.984604e-01	1.348837e+02
2.520000e-06	-1.558755e-07	2.000504e-09	-1.079012e+00	1.288815e+02
2.530000e-06	-2.107826e-07	1.906163e-09	-1.459093e+00	1.227306e+02
2.540000e-06	-2.656267e-07	1.811963e-09	-1.838738e+00	1.164474e+02
2.550000e-06	-3.204220e-07	1.717685e-09	-2.218046e+00	1.100289e+02
2.560000e-06	-3.751469e-07	1.619702e-09	-2.596866e+00	1.034504e+02
2.570000e-06	-4.297249e-07	1.515834e-09	-2.974669e+00	9.667233e+01
2.580000e-06	-4.840845e-07	1.407525e-09	-3.350961e+00	8.965088e+01
2.590000e-06	-5.381734e-07	1.293365e-09	-3.725378e+00	8.234994e+01
2.600000e-06	-5.919413e-07	1.176875e-09	-4.097574e+00	7.474877e+01
2.610000e-06	-6.453704e-07	1.058289e-09	-4.467424e+00	6.684300e+01
2.620000e-06	-6.984069e-07	9.353703e-10	-4.834557e+00	5.863885e+01
2.630000e-06	-7.509646e-07	8.068276e-10	-5.198375e+00	5.014314e+01
2.640000e-06	-8.030571e-07	6.741453e-10	-5.558973e+00	4.135305e+01
2.650000e-06	-8.547422e-07	5.359498e-10	-5.916751e+00	3.224979e+01
2.660000e-06	-9.060880e-07	3.912705e-10	-6.272180e+00	2.279849e+01
2.670000e-06	-9.571714e-07	2.412624e-10	-6.625793e+00	1.295421e+01
2.680000e-06	-1.008003e-06	8.501471e-11	-6.977663e+00	2.672235e+00
2.690000e-06	-1.058485e-06	-7.865869e-11	-7.327114e+00	-8.081165e+00
2.700000e-06	-1.108528e-06	-2.491730e-10	-7.673523e+00	-1.932039e+01
2.710000e-06	-1.158110e-06	-4.250680e-10	-8.016744e+00	-3.103677e+01
2.720000e-06	-1.207226e-06	-6.093509e-10	-8.356737e+00	-4.319931e+01
2.730000e-06	-1.255855e-06	-8.016313e-10	-8.693360e+00	-5.575850e+01
2.740000e-06	-1.303820e-06	-1.000413e-09	-9.025384e+00	-6.865081e+01
2.750000e-06	-1.350927e-06	-1.203419e-09	-9.351470e+00	-8.180187e+01
2.760000e-06	-1.397316e-06	-1.410532e-09	-9.672587e+00	-9.512751e+01
2.770000e-06	-1.443208e-06	-1.619774e-09	-9.990265e+00	-1.085333e+02
2.780000e-06	-1.488729e-06	-1.826072e-09	-1.030538e+01	-1.219139e+02
2.790000e-06	-1.533950e-06	-2.028763e-09	-1.061840e+01	-1.351550e+02
2.800000e-06	-1.578813e-06	-2.227210e-09	-1.092896e+01	-1.481369e+02
2.810000e-06	-1.623120e-06	-2.419768e-09	-1.123566e+01	-1.607423e+02
2.820000e-06	-1.666823e-06	-2.604051e-09	-1.153819e+01	-1.728653e+02
2.830000e-06	-1.710105e-06	-2.781469e-09	-1.183780e+01	-1.844187e+02
2.840000e-06	-1.752981e-06	-2.951471e-09	-1.213460e+01	-1.953408e+02
2.850000e-06	-1.795332e-06	-3.110873e-09	-1.242776e+01	-2.055963e+02
2.860000e-06	-1.837105e-06	-3.259593e-09	-1.271693e+01	-2.151750e+02
2.870000e-06	-1.878273e-06	-3.398323e-09	-1.300190e+01	-2.240865e+02
2.880000e-06	-1.918784e-06	-3.526513e-09	-1.328233e+01	-2.323548e+02
2.890000e-06	-1.958626e-06	-3.644131e-09	-1.355813e+01	-2.400128e+02
2.900000e-06	-1.997853e-06	-3.751283e-09	-1.382966e+01	-2.470988e+02
2.910000e-06	-2.036497e-06	-3.848864e-09	-1.409717e+01	-2.536542e+02
2.920000e-06	-2.074356e-06	-3.942052e-09	-1.435924e+01	-2.597229e+02
2.930000e-06	-2.111159e-06	-4.031735e-09	-1.461400e+01	-2.653501e+02
2.940000e-06	-2.147014e-06	-4.114547e-09	-1.486219e+01	-2.705814e+02
