# Temperatura_=_26.3
# Concentracion g/m^3_=_13400.0
# C_Vs_to_Am_M_A/Vsm_=_65563218390.804596
# pendiente_HvsI_1/m_=_3716.3
# ordenada_HvsI_A/m_=_1297.0
# frecuencia_Hz_=_300835.5801781987

Tiempo_(s)	Campo_(V.s)	Magnetizacion_(V.s)	Campo_(kA/m)	Magnetizacion_(A/m)
0.000000e+00	-2.859983e-06	-5.191335e-09	-1.980549e+01	-3.409335e+02
1.000000e-08	-2.858876e-06	-5.184432e-09	-1.979783e+01	-3.409285e+02
2.000000e-08	-2.856823e-06	-5.178830e-09	-1.978361e+01	-3.408263e+02
3.000000e-08	-2.853570e-06	-5.178166e-09	-1.976108e+01	-3.406395e+02
4.000000e-08	-2.849267e-06	-5.179904e-09	-1.973128e+01	-3.403871e+02
5.000000e-08	-2.844129e-06	-5.178389e-09	-1.969570e+01	-3.400869e+02
6.000000e-08	-2.838099e-06	-5.181183e-09	-1.965394e+01	-3.397495e+02
7.000000e-08	-2.831099e-06	-5.188326e-09	-1.960547e+01	-3.393754e+02
8.000000e-08	-2.823025e-06	-5.150770e-09	-1.954955e+01	-3.389575e+02
9.000000e-08	-2.813731e-06	-5.106564e-09	-1.948519e+01	-3.384854e+02
1.000000e-07	-2.803098e-06	-5.141415e-09	-1.941156e+01	-3.379519e+02
1.100000e-07	-2.791306e-06	-5.204005e-09	-1.932990e+01	-3.373567e+02
1.200000e-07	-2.778711e-06	-5.132680e-09	-1.924268e+01	-3.367069e+02
1.300000e-07	-2.765202e-06	-5.002081e-09	-1.914913e+01	-3.360143e+02
1.400000e-07	-2.750690e-06	-5.172777e-09	-1.904864e+01	-3.352898e+02
1.500000e-07	-2.735113e-06	-5.176067e-09	-1.894076e+01	-3.345384e+02
1.600000e-07	-2.718212e-06	-5.006149e-09	-1.882372e+01	-3.337561e+02
1.700000e-07	-2.700122e-06	-5.082797e-09	-1.869845e+01	-3.329308e+02
1.800000e-07	-2.681249e-06	-5.146251e-09	-1.856775e+01	-3.320466e+02
1.900000e-07	-2.661716e-06	-5.022385e-09	-1.843248e+01	-3.310897e+02
2.000000e-07	-2.641391e-06	-4.989498e-09	-1.829173e+01	-3.300534e+02
2.100000e-07	-2.620236e-06	-5.108974e-09	-1.814523e+01	-3.289406e+02
2.200000e-07	-2.598201e-06	-4.999606e-09	-1.799264e+01	-3.277622e+02
2.300000e-07	-2.575225e-06	-4.928570e-09	-1.783353e+01	-3.265329e+02
2.400000e-07	-2.551335e-06	-5.018353e-09	-1.766809e+01	-3.252641e+02
2.500000e-07	-2.526667e-06	-4.962322e-09	-1.749726e+01	-3.239598e+02
2.600000e-07	-2.501171e-06	-4.885643e-09	-1.732070e+01	-3.226140e+02
2.700000e-07	-2.474619e-06	-4.940032e-09	-1.713683e+01	-3.212126e+02
2.800000e-07	-2.446909e-06	-4.876026e-09	-1.694493e+01	-3.197390e+02
2.900000e-07	-2.418206e-06	-4.864619e-09	-1.674617e+01	-3.181799e+02
3.000000e-07	-2.388714e-06	-4.853828e-09	-1.654193e+01	-3.165309e+02
3.100000e-07	-2.358518e-06	-4.787502e-09	-1.633283e+01	-3.147986e+02
3.200000e-07	-2.327599e-06	-4.813131e-09	-1.611871e+01	-3.129980e+02
3.300000e-07	-2.295843e-06	-4.781410e-09	-1.589880e+01	-3.111481e+02
3.400000e-07	-2.263368e-06	-4.702596e-09	-1.567391e+01	-3.092646e+02
3.500000e-07	-2.230331e-06	-4.710030e-09	-1.544513e+01	-3.073551e+02
3.600000e-07	-2.196542e-06	-4.706411e-09	-1.521114e+01	-3.054166e+02
3.700000e-07	-2.161612e-06	-4.612026e-09	-1.496924e+01	-3.034371e+02
3.800000e-07	-2.125580e-06	-4.634528e-09	-1.471972e+01	-3.014004e+02
3.900000e-07	-2.088859e-06	-4.615797e-09	-1.446543e+01	-2.992925e+02
4.000000e-07	-2.051536e-06	-4.536885e-09	-1.420696e+01	-2.971063e+02
4.100000e-07	-2.013456e-06	-4.514294e-09	-1.394326e+01	-2.948448e+02
4.200000e-07	-1.974640e-06	-4.494661e-09	-1.367446e+01	-2.925195e+02
4.300000e-07	-1.935122e-06	-4.442772e-09	-1.340079e+01	-2.901458e+02
4.400000e-07	-1.894993e-06	-4.407996e-09	-1.312290e+01	-2.877379e+02
4.500000e-07	-1.854452e-06	-4.379109e-09	-1.284215e+01	-2.853032e+02
4.600000e-07	-1.813435e-06	-4.332186e-09	-1.255810e+01	-2.828399e+02
4.700000e-07	-1.771663e-06	-4.311662e-09	-1.226884e+01	-2.803374e+02
4.800000e-07	-1.728870e-06	-4.259128e-09	-1.197249e+01	-2.777802e+02
4.900000e-07	-1.685118e-06	-4.209237e-09	-1.166951e+01	-2.751532e+02
5.000000e-07	-1.640761e-06	-4.169435e-09	-1.136233e+01	-2.724463e+02
5.100000e-07	-1.596014e-06	-4.139548e-09	-1.105246e+01	-2.696581e+02
5.200000e-07	-1.550837e-06	-4.093998e-09	-1.073961e+01	-2.667951e+02
5.300000e-07	-1.505106e-06	-4.051249e-09	-1.042292e+01	-2.638694e+02
5.400000e-07	-1.458827e-06	-4.003331e-09	-1.010243e+01	-2.608936e+02
5.500000e-07	-1.412013e-06	-3.947089e-09	-9.778240e+00	-2.578760e+02
5.600000e-07	-1.364635e-06	-3.913436e-09	-9.450148e+00	-2.548172e+02
5.700000e-07	-1.316764e-06	-3.858712e-09	-9.118637e+00	-2.517095e+02
5.800000e-07	-1.268518e-06	-3.807835e-09	-8.784537e+00	-2.485385e+02
5.900000e-07	-1.219963e-06	-3.765126e-09	-8.448291e+00	-2.452876e+02
6.000000e-07	-1.170991e-06	-3.722220e-09	-8.109158e+00	-2.419428e+02
6.100000e-07	-1.121464e-06	-3.660756e-09	-7.766179e+00	-2.384971e+02
6.200000e-07	-1.071330e-06	-3.602142e-09	-7.419001e+00	-2.349521e+02
6.300000e-07	-1.020591e-06	-3.549250e-09	-7.067634e+00	-2.313177e+02
6.400000e-07	-9.692411e-07	-3.492568e-09	-6.712031e+00	-2.276087e+02
6.500000e-07	-9.174110e-07	-3.435313e-09	-6.353106e+00	-2.238400e+02
6.600000e-07	-8.652369e-07	-3.371525e-09	-5.991798e+00	-2.200221e+02
6.700000e-07	-8.127612e-07	-3.316404e-09	-5.628402e+00	-2.161573e+02
6.800000e-07	-7.600499e-07	-3.255410e-09	-5.263374e+00	-2.122389e+02
6.900000e-07	-7.070666e-07	-3.194886e-09	-4.896463e+00	-2.082529e+02
7.000000e-07	-6.538235e-07	-3.130477e-09	-4.527752e+00	-2.041817e+02
7.100000e-07	-6.003622e-07	-3.069891e-09	-4.157531e+00	-2.000088e+02
7.200000e-07	-5.467022e-07	-3.006121e-09	-3.785933e+00	-1.957234e+02
7.300000e-07	-4.927926e-07	-2.935368e-09	-3.412607e+00	-1.913224e+02
7.400000e-07	-4.386782e-07	-2.861701e-09	-3.037863e+00	-1.868102e+02
7.500000e-07	-3.844308e-07	-2.784267e-09	-2.662198e+00	-1.821956e+02
7.600000e-07	-3.300618e-07	-2.712715e-09	-2.285691e+00	-1.774877e+02
7.700000e-07	-2.755768e-07	-2.640631e-09	-1.908379e+00	-1.726907e+02
7.800000e-07	-2.210000e-07	-2.570408e-09	-1.530433e+00	-1.678011e+02
7.900000e-07	-1.663804e-07	-2.494798e-09	-1.152191e+00	-1.628065e+02
8.000000e-07	-1.117441e-07	-2.418486e-09	-7.738321e-01	-1.576883e+02
8.100000e-07	-5.713225e-08	-2.335722e-09	-3.956430e-01	-1.524255e+02
8.200000e-07	-2.508857e-09	-2.247629e-09	-1.737393e-02	-1.470001e+02
8.300000e-07	5.216077e-08	-2.158276e-09	3.612153e-01	-1.414004e+02
8.400000e-07	1.068120e-07	-2.067312e-09	7.396771e-01	-1.356231e+02
8.500000e-07	1.613973e-07	-1.977809e-09	1.117682e+00	-1.296711e+02
8.600000e-07	2.159300e-07	-1.885694e-09	1.495323e+00	-1.235497e+02
8.700000e-07	2.704222e-07	-1.795184e-09	1.872684e+00	-1.172611e+02
8.800000e-07	3.248127e-07	-1.698242e-09	2.249340e+00	-1.108005e+02
8.900000e-07	3.791283e-07	-1.595085e-09	2.625478e+00	-1.041538e+02
9.000000e-07	4.334014e-07	-1.484872e-09	3.001321e+00	-9.729863e+01
9.100000e-07	4.874938e-07	-1.374524e-09	3.375913e+00	-9.020845e+01
9.200000e-07	5.413140e-07	-1.262044e-09	3.748620e+00	-8.285749e+01
9.300000e-07	5.949211e-07	-1.142535e-09	4.119851e+00	-7.522511e+01
9.400000e-07	6.483617e-07	-1.019995e-09	4.489929e+00	-6.729773e+01
9.500000e-07	7.015373e-07	-8.956071e-10	4.858172e+00	-5.906751e+01
9.600000e-07	7.544710e-07	-7.715455e-10	5.224740e+00	-5.052826e+01
9.700000e-07	8.071750e-07	-6.372516e-10	5.589717e+00	-4.167002e+01
9.800000e-07	8.595872e-07	-4.932090e-10	5.952674e+00	-3.247459e+01
9.900000e-07	9.116231e-07	-3.413463e-10	6.313024e+00	-2.291385e+01
1.000000e-06	9.632137e-07	-1.850883e-10	6.670291e+00	-1.295186e+01
1.010000e-06	1.014277e-06	-2.287480e-11	7.023904e+00	-2.550544e+00
1.020000e-06	1.064704e-06	1.444849e-10	7.373112e+00	8.322543e+00
1.030000e-06	1.114484e-06	3.170979e-10	7.717845e+00	1.968644e+01
1.040000e-06	1.163692e-06	4.968416e-10	8.058608e+00	3.154089e+01
1.050000e-06	1.212504e-06	6.818236e-10	8.396637e+00	4.386363e+01
1.060000e-06	1.261035e-06	8.770674e-10	8.732717e+00	5.661062e+01
1.070000e-06	1.309255e-06	1.079443e-09	9.066642e+00	6.971852e+01
1.080000e-06	1.357007e-06	1.287769e-09	9.397323e+00	8.310781e+01
1.090000e-06	1.404231e-06	1.494367e-09	9.724350e+00	9.668540e+01
1.100000e-06	1.450998e-06	1.698676e-09	1.004822e+01	1.103464e+02
1.110000e-06	1.497284e-06	1.902803e-09	1.036875e+01	1.239757e+02
1.120000e-06	1.543034e-06	2.104734e-09	1.068557e+01	1.374502e+02
1.130000e-06	1.588263e-06	2.302429e-09	1.099878e+01	1.506435e+02
1.140000e-06	1.633058e-06	2.496519e-09	1.130899e+01	1.634330e+02
1.150000e-06	1.677487e-06	2.686043e-09	1.161666e+01	1.757091e+02
1.160000e-06	1.721465e-06	2.865175e-09	1.192121e+01	1.873841e+02
1.170000e-06	1.764661e-06	3.032692e-09	1.222034e+01	1.983991e+02
1.180000e-06	1.806850e-06	3.187194e-09	1.251250e+01	2.087267e+02
1.190000e-06	1.848200e-06	3.333797e-09	1.279885e+01	2.183681e+02
1.200000e-06	1.888917e-06	3.469918e-09	1.308082e+01	2.273455e+02
1.210000e-06	1.929075e-06	3.595730e-09	1.335892e+01	2.356928e+02
1.220000e-06	1.968630e-06	3.711823e-09	1.363284e+01	2.434466e+02
1.230000e-06	2.007541e-06	3.819097e-09	1.390230e+01	2.506404e+02
1.240000e-06	2.045777e-06	3.919591e-09	1.416708e+01	2.573036e+02
1.250000e-06	2.083273e-06	4.011871e-09	1.442674e+01	2.634645e+02
1.260000e-06	2.120153e-06	4.097072e-09	1.468214e+01	2.691555e+02
1.270000e-06	2.156507e-06	4.177233e-09	1.493389e+01	2.744170e+02
1.280000e-06	2.192114e-06	4.254644e-09	1.518047e+01	2.792980e+02
1.290000e-06	2.226711e-06	4.324731e-09	1.542006e+01	2.838520e+02
1.300000e-06	2.260274e-06	4.386663e-09	1.565248e+01	2.881298e+02
1.310000e-06	2.292971e-06	4.444165e-09	1.587891e+01	2.921705e+02
1.320000e-06	2.325000e-06	4.500740e-09	1.610071e+01	2.959956e+02
1.330000e-06	2.356297e-06	4.556248e-09	1.631745e+01	2.996079e+02
1.340000e-06	2.386731e-06	4.607275e-09	1.652820e+01	3.029961e+02
1.350000e-06	2.416407e-06	4.652767e-09	1.673371e+01	3.061443e+02
1.360000e-06	2.445400e-06	4.695155e-09	1.693449e+01	3.090431e+02
1.370000e-06	2.473675e-06	4.736575e-09	1.713030e+01	3.116982e+02
1.380000e-06	2.501033e-06	4.773527e-09	1.731975e+01	3.141333e+02
1.390000e-06	2.527211e-06	4.805578e-09	1.750103e+01	3.163860e+02
1.400000e-06	2.552285e-06	4.835196e-09	1.767467e+01	3.184994e+02
1.410000e-06	2.576488e-06	4.864383e-09	1.784228e+01	3.205098e+02
1.420000e-06	2.599827e-06	4.893536e-09	1.800390e+01	3.224378e+02
1.430000e-06	2.622244e-06	4.924620e-09	1.815914e+01	3.242846e+02
1.440000e-06	2.643816e-06	4.954680e-09	1.830853e+01	3.260347e+02
1.450000e-06	2.664641e-06	4.977060e-09	1.845274e+01	3.276654e+02
1.460000e-06	2.684711e-06	4.996083e-09	1.859173e+01	3.291577e+02
1.470000e-06	2.703905e-06	5.015890e-09	1.872464e+01	3.305061e+02
1.480000e-06	2.722108e-06	5.036177e-09	1.885070e+01	3.317227e+02
1.490000e-06	2.739281e-06	5.053486e-09	1.896963e+01	3.328344e+02
1.500000e-06	2.755456e-06	5.067438e-09	1.908164e+01	3.338742e+02
1.510000e-06	2.770560e-06	5.082363e-09	1.918623e+01	3.348701e+02
1.520000e-06	2.784578e-06	5.099493e-09	1.928331e+01	3.358357e+02
1.530000e-06	2.797584e-06	5.116486e-09	1.937338e+01	3.367662e+02
1.540000e-06	2.809457e-06	5.129301e-09	1.945560e+01	3.376410e+02
1.550000e-06	2.820031e-06	5.137275e-09	1.952882e+01	3.384326e+02
1.560000e-06	2.829347e-06	5.145831e-09	1.959334e+01	3.391172e+02
1.570000e-06	2.837721e-06	5.158307e-09	1.965133e+01	3.396847e+02
1.580000e-06	2.845270e-06	5.171325e-09	1.970360e+01	3.401432e+02
1.590000e-06	2.851822e-06	5.179543e-09	1.974897e+01	3.405162e+02
1.600000e-06	2.857400e-06	5.181908e-09	1.978760e+01	3.408349e+02
1.610000e-06	2.862155e-06	5.184615e-09	1.982053e+01	3.411278e+02
1.620000e-06	2.865948e-06	5.191012e-09	1.984680e+01	3.414106e+02
1.630000e-06	2.868541e-06	5.197116e-09	1.986475e+01	3.416820e+02
1.640000e-06	2.869995e-06	5.199996e-09	1.987482e+01	3.419250e+02
1.650000e-06	2.870526e-06	5.202148e-09	1.987850e+01	3.421135e+02
1.660000e-06	2.870130e-06	5.205205e-09	1.987576e+01	3.422224e+02
1.670000e-06	2.868771e-06	5.207737e-09	1.986635e+01	3.422354e+02
1.680000e-06	2.866529e-06	5.204721e-09	1.985082e+01	3.421501e+02
1.690000e-06	2.863479e-06	5.201235e-09	1.982970e+01	3.419774e+02
1.700000e-06	2.859615e-06	5.200404e-09	1.980294e+01	3.417355e+02
1.710000e-06	2.854744e-06	5.196865e-09	1.976921e+01	3.414431e+02
1.720000e-06	2.848723e-06	5.174780e-09	1.972751e+01	3.411122e+02
1.730000e-06	2.841709e-06	5.161003e-09	1.967894e+01	3.407453e+02
1.740000e-06	2.833771e-06	5.204978e-09	1.962397e+01	3.403362e+02
1.750000e-06	2.824507e-06	5.230462e-09	1.955982e+01	3.398747e+02
1.760000e-06	2.813738e-06	5.109474e-09	1.948524e+01	3.393527e+02
1.770000e-06	2.802056e-06	5.112567e-09	1.940434e+01	3.387684e+02
1.780000e-06	2.790075e-06	5.187229e-09	1.932137e+01	3.381278e+02
1.790000e-06	2.777343e-06	5.188465e-09	1.923321e+01	3.374422e+02
1.800000e-06	2.763058e-06	5.029607e-09	1.913428e+01	3.367230e+02
1.810000e-06	2.747542e-06	5.089935e-09	1.902683e+01	3.359767e+02
1.820000e-06	2.731391e-06	5.251891e-09	1.891499e+01	3.352008e+02
1.830000e-06	2.714277e-06	5.047040e-09	1.879647e+01	3.343846e+02
1.840000e-06	2.695910e-06	5.025631e-09	1.866928e+01	3.335123e+02
1.850000e-06	2.676714e-06	5.199992e-09	1.853634e+01	3.325694e+02
1.860000e-06	2.656749e-06	5.053855e-09	1.839809e+01	3.315476e+02
1.870000e-06	2.635632e-06	4.946291e-09	1.825185e+01	3.304480e+02
1.880000e-06	2.613369e-06	5.117642e-09	1.809768e+01	3.292806e+02
1.890000e-06	2.590137e-06	5.052323e-09	1.793679e+01	3.280596e+02
1.900000e-06	2.565965e-06	4.929595e-09	1.776940e+01	3.267976e+02
1.910000e-06	2.540986e-06	5.002605e-09	1.759642e+01	3.255001e+02
1.920000e-06	2.515276e-06	4.991146e-09	1.741838e+01	3.241627e+02
1.930000e-06	2.488749e-06	4.893730e-09	1.723468e+01	3.227728e+02
1.940000e-06	2.461481e-06	4.952676e-09	1.704585e+01	3.213134e+02
1.950000e-06	2.433315e-06	4.881443e-09	1.685080e+01	3.197704e+02
1.960000e-06	2.403861e-06	4.845907e-09	1.664683e+01	3.181376e+02
1.970000e-06	2.373367e-06	4.897177e-09	1.643566e+01	3.164195e+02
1.980000e-06	2.342180e-06	4.771660e-09	1.621969e+01	3.146300e+02
1.990000e-06	2.310227e-06	4.774649e-09	1.599841e+01	3.127877e+02
2.000000e-06	2.277475e-06	4.810281e-09	1.577160e+01	3.109096e+02
2.010000e-06	2.243966e-06	4.685198e-09	1.553955e+01	3.090050e+02
2.020000e-06	2.209685e-06	4.700030e-09	1.530215e+01	3.070726e+02
2.030000e-06	2.174791e-06	4.711976e-09	1.506051e+01	3.051018e+02
2.040000e-06	2.139307e-06	4.579057e-09	1.481478e+01	3.030768e+02
2.050000e-06	2.103019e-06	4.597978e-09	1.456349e+01	3.009825e+02
2.060000e-06	2.065771e-06	4.599281e-09	1.430554e+01	2.988107e+02
2.070000e-06	2.027490e-06	4.517022e-09	1.404044e+01	2.965623e+02
2.080000e-06	1.988396e-06	4.504339e-09	1.376972e+01	2.942474e+02
2.090000e-06	1.948731e-06	4.455445e-09	1.349504e+01	2.918815e+02
2.100000e-06	1.908507e-06	4.419235e-09	1.321648e+01	2.894791e+02
2.110000e-06	1.867639e-06	4.390661e-09	1.293347e+01	2.870493e+02
2.120000e-06	1.826187e-06	4.326115e-09	1.264642e+01	2.845919e+02
2.130000e-06	1.784178e-06	4.305307e-09	1.235550e+01	2.820977e+02
2.140000e-06	1.741574e-06	4.287221e-09	1.206046e+01	2.795518e+02
2.150000e-06	1.698488e-06	4.235444e-09	1.176209e+01	2.769384e+02
2.160000e-06	1.654973e-06	4.185136e-09	1.146075e+01	2.742464e+02
2.170000e-06	1.610870e-06	4.131050e-09	1.115534e+01	2.714727e+02
2.180000e-06	1.566052e-06	4.093581e-09	1.084497e+01	2.686225e+02
2.190000e-06	1.520652e-06	4.058054e-09	1.053057e+01	2.657073e+02
2.200000e-06	1.474851e-06	4.011194e-09	1.021340e+01	2.627399e+02
2.210000e-06	1.428639e-06	3.974499e-09	9.893381e+00	2.597297e+02
2.220000e-06	1.381969e-06	3.912817e-09	9.570185e+00	2.566788e+02
2.230000e-06	1.334683e-06	3.876065e-09	9.242729e+00	2.535810e+02
2.240000e-06	1.286747e-06	3.826862e-09	8.910774e+00	2.504228e+02
2.250000e-06	1.238267e-06	3.754224e-09	8.575044e+00	2.471875e+02
2.260000e-06	1.189339e-06	3.716192e-09	8.236219e+00	2.438605e+02
2.270000e-06	1.140052e-06	3.672581e-09	7.894902e+00	2.404332e+02
2.280000e-06	1.090322e-06	3.621288e-09	7.550523e+00	2.369057e+02
2.290000e-06	1.040116e-06	3.561738e-09	7.202844e+00	2.332865e+02
2.300000e-06	9.894788e-07	3.497336e-09	6.852178e+00	2.295899e+02
2.310000e-06	9.385044e-07	3.444486e-09	6.499179e+00	2.258312e+02
2.320000e-06	8.872575e-07	3.389551e-09	6.144292e+00	2.220219e+02
2.330000e-06	8.357255e-07	3.327513e-09	5.787431e+00	2.181659e+02
2.340000e-06	7.838799e-07	3.272074e-09	5.428398e+00	2.142582e+02
2.350000e-06	7.315470e-07	3.211735e-09	5.065991e+00	2.102858e+02
2.360000e-06	6.786777e-07	3.150795e-09	4.699869e+00	2.062313e+02
2.370000e-06	6.253553e-07	3.086482e-09	4.330609e+00	2.020778e+02
2.380000e-06	5.716425e-07	3.020411e-09	3.958646e+00	1.978132e+02
2.390000e-06	5.176781e-07	2.959531e-09	3.584940e+00	1.934330e+02
2.400000e-06	4.635389e-07	2.891092e-09	3.210025e+00	1.889403e+02
2.410000e-06	4.091342e-07	2.825431e-09	2.833270e+00	1.843435e+02
2.420000e-06	3.544982e-07	2.755301e-09	2.454913e+00	1.796520e+02
2.430000e-06	2.997332e-07	2.679994e-09	2.075664e+00	1.748712e+02
2.440000e-06	2.448508e-07	2.606074e-09	1.695601e+00	1.699990e+02
2.450000e-06	1.899241e-07	2.531197e-09	1.315232e+00	1.650246e+02
2.460000e-06	1.349734e-07	2.456004e-09	9.346960e-01	1.599303e+02
2.470000e-06	7.999714e-08	2.376403e-09	5.539832e-01	1.546951e+02
2.480000e-06	2.499012e-08	2.294786e-09	1.730575e-01	1.493000e+02
2.490000e-06	-3.004146e-08	2.210968e-09	-2.080382e-01	1.437322e+02
2.500000e-06	-8.505052e-08	2.122995e-09	-5.889781e-01	1.379868e+02
2.510000e-06	-1.400019e-07	2.032961e-09	-9.695182e-01	1.320658e+02
2.520000e-06	-1.949276e-07	1.943210e-09	-1.349881e+00	1.259745e+02
2.530000e-06	-2.498420e-07	1.848999e-09	-1.730166e+00	1.197162e+02
2.540000e-06	-3.046890e-07	1.751196e-09	-2.109983e+00	1.132873e+02
2.550000e-06	-3.594313e-07	1.650124e-09	-2.489075e+00	1.066755e+02
2.560000e-06	-4.140475e-07	1.545448e-09	-2.867295e+00	9.985970e+01
2.570000e-06	-4.685227e-07	1.438174e-09	-3.244537e+00	9.281371e+01
2.580000e-06	-5.227151e-07	1.325215e-09	-3.619822e+00	8.551127e+01
2.590000e-06	-5.765177e-07	1.211233e-09	-3.992407e+00	7.793058e+01
2.600000e-06	-6.300115e-07	1.093604e-09	-4.362853e+00	7.005682e+01
2.610000e-06	-6.830926e-07	9.712758e-10	-4.730442e+00	6.188137e+01
2.620000e-06	-7.356917e-07	8.423492e-10	-5.094693e+00	5.339810e+01
2.630000e-06	-7.879012e-07	7.080936e-10	-5.456246e+00	4.459812e+01
2.640000e-06	-8.397427e-07	5.692329e-10	-5.815250e+00	3.546493e+01
2.650000e-06	-8.912095e-07	4.250503e-10	-6.171660e+00	2.597213e+01
2.660000e-06	-9.423540e-07	2.761752e-10	-6.525837e+00	1.608487e+01
2.670000e-06	-9.932283e-07	1.198780e-10	-6.878144e+00	5.764897e+00
2.680000e-06	-1.043777e-06	-4.297975e-11	-7.228194e+00	-5.021826e+00
2.690000e-06	-1.093926e-06	-2.134359e-10	-7.575476e+00	-1.629724e+01
2.700000e-06	-1.143646e-06	-3.908877e-10	-7.919788e+00	-2.806484e+01
2.710000e-06	-1.192868e-06	-5.782494e-10	-8.260655e+00	-4.030633e+01
2.720000e-06	-1.241545e-06	-7.731704e-10	-8.597745e+00	-5.298145e+01
2.730000e-06	-1.289690e-06	-9.725825e-10	-8.931155e+00	-6.603006e+01
2.740000e-06	-1.337179e-06	-1.175136e-09	-9.260013e+00	-7.937532e+01
2.750000e-06	-1.383839e-06	-1.382148e-09	-9.583139e+00	-9.292641e+01
2.760000e-06	-1.429836e-06	-1.594181e-09	-9.901668e+00	-1.065805e+02
2.770000e-06	-1.475420e-06	-1.805753e-09	-1.021734e+01	-1.202240e+02
2.780000e-06	-1.520700e-06	-2.014816e-09	-1.053090e+01	-1.337351e+02
2.790000e-06	-1.565652e-06	-2.218490e-09	-1.084220e+01	-1.469876e+02
2.800000e-06	-1.610089e-06	-2.414537e-09	-1.114993e+01	-1.598576e+02
2.810000e-06	-1.653924e-06	-2.602773e-09	-1.145349e+01	-1.722323e+02
2.820000e-06	-1.697283e-06	-2.784744e-09	-1.175375e+01	-1.840195e+02
2.830000e-06	-1.740256e-06	-2.955950e-09	-1.205134e+01	-1.951550e+02
2.840000e-06	-1.782723e-06	-3.114868e-09	-1.234542e+01	-2.056059e+02
2.850000e-06	-1.824605e-06	-3.265961e-09	-1.263546e+01	-2.153684e+02
2.860000e-06	-1.865923e-06	-3.408838e-09	-1.292159e+01	-2.244618e+02
2.870000e-06	-1.906614e-06	-3.540058e-09	-1.320338e+01	-2.329187e+02
2.880000e-06	-1.946647e-06	-3.658445e-09	-1.348060e+01	-2.407757e+02
2.890000e-06	-1.986070e-06	-3.770364e-09	-1.375361e+01	-2.480670e+02
2.900000e-06	-2.024893e-06	-3.877113e-09	-1.402246e+01	-2.548226e+02
2.910000e-06	-2.063023e-06	-3.974515e-09	-1.428652e+01	-2.610707e+02
2.920000e-06	-2.100233e-06	-4.060296e-09	-1.454419e+01	-2.668427e+02
2.930000e-06	-2.136425e-06	-4.138882e-09	-1.479482e+01	-2.721773e+02
2.940000e-06	-2.171751e-06	-4.217034e-09	-1.503946e+01	-2.771221e+02
