# Temperatura_=_23.32
# Concentracion g/m^3_=_13400.0
# C_Vs_to_Am_M_A/Vsm_=_65563218390.804596
# pendiente_HvsI_1/m_=_3716.3
# ordenada_HvsI_A/m_=_1297.0
# frecuencia_Hz_=_300839.824532665

Tiempo_(s)	Campo_(V.s)	Magnetizacion_(V.s)	Campo_(kA/m)	Magnetizacion_(A/m)
0.000000e+00	-2.859948e-06	-5.147259e-09	-1.980629e+01	-3.373655e+02
1.000000e-08	-2.859404e-06	-5.141594e-09	-1.980252e+01	-3.373527e+02
2.000000e-08	-2.858079e-06	-5.134592e-09	-1.979335e+01	-3.373000e+02
3.000000e-08	-2.855683e-06	-5.134567e-09	-1.977676e+01	-3.372125e+02
4.000000e-08	-2.852044e-06	-5.139387e-09	-1.975156e+01	-3.370859e+02
5.000000e-08	-2.847444e-06	-5.139778e-09	-1.971970e+01	-3.369078e+02
6.000000e-08	-2.842065e-06	-5.130608e-09	-1.968245e+01	-3.366623e+02
7.000000e-08	-2.835809e-06	-5.118536e-09	-1.963912e+01	-3.363366e+02
8.000000e-08	-2.828536e-06	-5.128144e-09	-1.958875e+01	-3.359274e+02
9.000000e-08	-2.820170e-06	-5.143597e-09	-1.953081e+01	-3.354430e+02
1.000000e-07	-2.810516e-06	-5.117255e-09	-1.946396e+01	-3.349022e+02
1.100000e-07	-2.799431e-06	-5.053718e-09	-1.938719e+01	-3.343285e+02
1.200000e-07	-2.787379e-06	-5.060882e-09	-1.930373e+01	-3.337427e+02
1.300000e-07	-2.774575e-06	-5.130069e-09	-1.921505e+01	-3.331561e+02
1.400000e-07	-2.760739e-06	-5.085991e-09	-1.911923e+01	-3.325673e+02
1.500000e-07	-2.745910e-06	-5.008538e-09	-1.901654e+01	-3.319633e+02
1.600000e-07	-2.730011e-06	-5.076294e-09	-1.890643e+01	-3.313238e+02
1.700000e-07	-2.712693e-06	-5.102235e-09	-1.878649e+01	-3.306285e+02
1.800000e-07	-2.694287e-06	-5.006264e-09	-1.865903e+01	-3.298629e+02
1.900000e-07	-2.675275e-06	-5.012625e-09	-1.852736e+01	-3.290214e+02
2.000000e-07	-2.655510e-06	-5.052867e-09	-1.839048e+01	-3.281073e+02
2.100000e-07	-2.634871e-06	-4.960598e-09	-1.824755e+01	-3.271289e+02
2.200000e-07	-2.613439e-06	-4.946409e-09	-1.809912e+01	-3.260951e+02
2.300000e-07	-2.591158e-06	-5.030653e-09	-1.794482e+01	-3.250108e+02
2.400000e-07	-2.567842e-06	-4.959500e-09	-1.778334e+01	-3.238749e+02
2.500000e-07	-2.543622e-06	-4.889544e-09	-1.761561e+01	-3.226807e+02
2.600000e-07	-2.518701e-06	-4.932201e-09	-1.744302e+01	-3.214187e+02
2.700000e-07	-2.492965e-06	-4.896367e-09	-1.726479e+01	-3.200800e+02
2.800000e-07	-2.466140e-06	-4.837947e-09	-1.707902e+01	-3.186588e+02
2.900000e-07	-2.438138e-06	-4.845658e-09	-1.688509e+01	-3.171538e+02
3.000000e-07	-2.409226e-06	-4.819227e-09	-1.668486e+01	-3.155678e+02
3.100000e-07	-2.379589e-06	-4.796120e-09	-1.647961e+01	-3.139057e+02
3.200000e-07	-2.349232e-06	-4.797426e-09	-1.626938e+01	-3.121736e+02
3.300000e-07	-2.318074e-06	-4.757804e-09	-1.605360e+01	-3.103774e+02
3.400000e-07	-2.286118e-06	-4.712811e-09	-1.583229e+01	-3.085225e+02
3.500000e-07	-2.253507e-06	-4.687982e-09	-1.560645e+01	-3.066145e+02
3.600000e-07	-2.220289e-06	-4.670342e-09	-1.537639e+01	-3.046588e+02
3.700000e-07	-2.186196e-06	-4.650701e-09	-1.514029e+01	-3.026601e+02
3.800000e-07	-2.150879e-06	-4.612643e-09	-1.489571e+01	-3.006205e+02
3.900000e-07	-2.114571e-06	-4.580186e-09	-1.464426e+01	-2.985383e+02
4.000000e-07	-2.077711e-06	-4.566228e-09	-1.438899e+01	-2.964076e+02
4.100000e-07	-2.040195e-06	-4.524120e-09	-1.412917e+01	-2.942190e+02
4.200000e-07	-2.001922e-06	-4.468592e-09	-1.386412e+01	-2.919632e+02
4.300000e-07	-1.962937e-06	-4.434282e-09	-1.359413e+01	-2.896343e+02
4.400000e-07	-1.923219e-06	-4.408033e-09	-1.331907e+01	-2.872333e+02
4.500000e-07	-1.882850e-06	-4.375327e-09	-1.303950e+01	-2.847689e+02
4.600000e-07	-1.842104e-06	-4.336653e-09	-1.275732e+01	-2.822557e+02
4.700000e-07	-1.800976e-06	-4.298251e-09	-1.247248e+01	-2.797086e+02
4.800000e-07	-1.759004e-06	-4.255602e-09	-1.218181e+01	-2.771377e+02
4.900000e-07	-1.715912e-06	-4.207734e-09	-1.188338e+01	-2.745428e+02
5.000000e-07	-1.671906e-06	-4.165908e-09	-1.157863e+01	-2.719126e+02
5.100000e-07	-1.627385e-06	-4.126898e-09	-1.127030e+01	-2.692273e+02
5.200000e-07	-1.582493e-06	-4.086553e-09	-1.095940e+01	-2.664652e+02
5.300000e-07	-1.537129e-06	-4.052944e-09	-1.064524e+01	-2.636106e+02
5.400000e-07	-1.491241e-06	-4.011167e-09	-1.032744e+01	-2.606602e+02
5.500000e-07	-1.444804e-06	-3.952751e-09	-1.000585e+01	-2.576241e+02
5.600000e-07	-1.397865e-06	-3.898308e-09	-9.680777e+00	-2.545229e+02
5.700000e-07	-1.350390e-06	-3.854427e-09	-9.351997e+00	-2.513793e+02
5.800000e-07	-1.302397e-06	-3.808701e-09	-9.019627e+00	-2.482084e+02
5.900000e-07	-1.254030e-06	-3.761174e-09	-8.684662e+00	-2.450110e+02
6.000000e-07	-1.205359e-06	-3.716466e-09	-8.347595e+00	-2.417712e+02
6.100000e-07	-1.156323e-06	-3.665236e-09	-8.008003e+00	-2.384614e+02
6.200000e-07	-1.106744e-06	-3.605818e-09	-7.664649e+00	-2.350513e+02
6.300000e-07	-1.056541e-06	-3.548797e-09	-7.316973e+00	-2.315192e+02
6.400000e-07	-1.005658e-06	-3.494473e-09	-6.964590e+00	-2.278601e+02
6.500000e-07	-9.541645e-07	-3.438644e-09	-6.607975e+00	-2.240880e+02
6.600000e-07	-9.022279e-07	-3.380956e-09	-6.248292e+00	-2.202314e+02
6.700000e-07	-8.499456e-07	-3.322963e-09	-5.886217e+00	-2.163226e+02
6.800000e-07	-7.973791e-07	-3.263153e-09	-5.522172e+00	-2.123860e+02
6.900000e-07	-7.445572e-07	-3.198753e-09	-5.156359e+00	-2.084289e+02
7.000000e-07	-6.914951e-07	-3.134623e-09	-4.788883e+00	-2.044390e+02
7.100000e-07	-6.382151e-07	-3.073279e-09	-4.419897e+00	-2.003887e+02
7.200000e-07	-5.847235e-07	-3.012022e-09	-4.049446e+00	-1.962455e+02
7.300000e-07	-5.310091e-07	-2.947775e-09	-3.677453e+00	-1.919836e+02
7.400000e-07	-4.770299e-07	-2.877176e-09	-3.303625e+00	-1.875925e+02
7.500000e-07	-4.228220e-07	-2.801516e-09	-2.928213e+00	-1.830788e+02
7.600000e-07	-3.684889e-07	-2.728796e-09	-2.551934e+00	-1.784616e+02
7.700000e-07	-3.140708e-07	-2.658172e-09	-2.175067e+00	-1.737617e+02
7.800000e-07	-2.595795e-07	-2.584981e-09	-1.797693e+00	-1.689908e+02
7.900000e-07	-2.050406e-07	-2.510803e-09	-1.419989e+00	-1.641439e+02
8.000000e-07	-1.504753e-07	-2.437326e-09	-1.042103e+00	-1.591987e+02
8.100000e-07	-9.585850e-08	-2.361229e-09	-6.638588e-01	-1.541220e+02
8.200000e-07	-4.119680e-08	-2.278094e-09	-2.853045e-01	-1.488809e+02
8.300000e-07	1.348056e-08	-2.190947e-09	9.335829e-02	-1.434534e+02
8.400000e-07	6.817237e-08	-2.103783e-09	4.721212e-01	-1.378354e+02
8.500000e-07	1.228500e-07	-2.017528e-09	8.507859e-01	-1.320400e+02
8.600000e-07	1.774981e-07	-1.927746e-09	1.229246e+00	-1.260895e+02
8.700000e-07	2.320774e-07	-1.834835e-09	1.607230e+00	-1.200036e+02
8.800000e-07	2.865604e-07	-1.742361e-09	1.984546e+00	-1.137880e+02
8.900000e-07	3.409542e-07	-1.647572e-09	2.361245e+00	-1.074283e+02
9.000000e-07	3.952636e-07	-1.545359e-09	2.737360e+00	-1.008908e+02
9.100000e-07	4.494183e-07	-1.436744e-09	3.112403e+00	-9.413123e+01
9.200000e-07	5.033709e-07	-1.327305e-09	3.486047e+00	-8.710650e+01
9.300000e-07	5.571673e-07	-1.216603e-09	3.858609e+00	-7.978601e+01
9.400000e-07	6.107097e-07	-1.101179e-09	4.229411e+00	-7.215719e+01
9.500000e-07	6.639632e-07	-9.798693e-10	4.598213e+00	-6.422369e+01
9.600000e-07	7.170134e-07	-8.545549e-10	4.965607e+00	-5.599675e+01
9.700000e-07	7.698305e-07	-7.262656e-10	5.331387e+00	-4.748334e+01
9.800000e-07	8.223766e-07	-5.928789e-10	5.695290e+00	-3.867581e+01
9.900000e-07	8.746683e-07	-4.511479e-10	6.057431e+00	-2.954730e+01
1.000000e-06	9.265871e-07	-3.022143e-10	6.416990e+00	-2.005465e+01
1.010000e-06	9.780492e-07	-1.478226e-10	6.773386e+00	-1.014796e+01
1.020000e-06	1.028917e-06	1.189832e-11	7.125666e+00	2.167311e-01
1.030000e-06	1.079037e-06	1.775557e-10	7.472770e+00	1.106605e+01
1.040000e-06	1.128531e-06	3.517740e-10	7.815535e+00	2.240273e+01
1.050000e-06	1.177586e-06	5.336745e-10	8.155261e+00	3.420545e+01
1.060000e-06	1.226346e-06	7.177441e-10	8.492941e+00	4.643361e+01
1.070000e-06	1.274868e-06	9.049586e-10	8.828973e+00	5.903424e+01
1.080000e-06	1.323045e-06	1.101732e-09	9.162620e+00	7.194719e+01
1.090000e-06	1.370685e-06	1.305857e-09	9.492549e+00	8.510623e+01
1.100000e-06	1.417746e-06	1.509001e-09	9.818464e+00	9.843596e+01
1.110000e-06	1.464322e-06	1.710856e-09	1.014102e+01	1.118467e+02
1.120000e-06	1.510388e-06	1.914644e-09	1.046005e+01	1.252307e+02
1.130000e-06	1.555882e-06	2.116492e-09	1.077511e+01	1.384633e+02
1.140000e-06	1.600929e-06	2.311644e-09	1.108708e+01	1.514109e+02
1.150000e-06	1.645609e-06	2.498486e-09	1.139650e+01	1.639429e+02
1.160000e-06	1.689888e-06	2.679237e-09	1.170315e+01	1.759474e+02
1.170000e-06	1.733601e-06	2.854004e-09	1.200589e+01	1.873431e+02
1.180000e-06	1.776490e-06	3.018544e-09	1.230291e+01	1.980851e+02
1.190000e-06	1.818384e-06	3.170543e-09	1.259304e+01	2.081626e+02
1.200000e-06	1.859448e-06	3.313558e-09	1.287743e+01	2.175898e+02
1.210000e-06	1.900042e-06	3.452491e-09	1.315856e+01	2.263930e+02
1.220000e-06	1.940175e-06	3.582669e-09	1.343650e+01	2.345996e+02
1.230000e-06	1.979639e-06	3.695135e-09	1.370980e+01	2.422318e+02
1.240000e-06	2.018380e-06	3.794304e-09	1.397810e+01	2.493068e+02
1.250000e-06	2.056376e-06	3.889769e-09	1.424124e+01	2.558427e+02
1.260000e-06	2.093679e-06	3.984056e-09	1.449957e+01	2.618664e+02
1.270000e-06	2.130456e-06	4.072206e-09	1.475427e+01	2.674185e+02
1.280000e-06	2.166666e-06	4.149568e-09	1.500504e+01	2.725537e+02
1.290000e-06	2.202020e-06	4.220826e-09	1.524988e+01	2.773345e+02
1.300000e-06	2.236258e-06	4.290138e-09	1.548699e+01	2.818204e+02
1.310000e-06	2.269496e-06	4.354481e-09	1.571717e+01	2.860573e+02
1.320000e-06	2.302055e-06	4.412981e-09	1.594266e+01	2.900703e+02
1.330000e-06	2.333937e-06	4.467622e-09	1.616345e+01	2.938630e+02
1.340000e-06	2.365009e-06	4.520102e-09	1.637864e+01	2.974240e+02
1.350000e-06	2.395278e-06	4.570314e-09	1.658827e+01	3.007379e+02
1.360000e-06	2.424740e-06	4.614894e-09	1.679230e+01	3.037969e+02
1.370000e-06	2.453515e-06	4.654282e-09	1.699158e+01	3.066085e+02
1.380000e-06	2.481608e-06	4.692346e-09	1.718614e+01	3.091967e+02
1.390000e-06	2.508591e-06	4.730428e-09	1.737300e+01	3.115970e+02
1.400000e-06	2.534325e-06	4.765842e-09	1.755122e+01	3.138466e+02
1.410000e-06	2.559129e-06	4.795865e-09	1.772300e+01	3.159750e+02
1.420000e-06	2.583059e-06	4.822993e-09	1.788873e+01	3.179968e+02
1.430000e-06	2.606083e-06	4.852259e-09	1.804817e+01	3.199118e+02
1.440000e-06	2.628297e-06	4.881778e-09	1.820202e+01	3.217093e+02
1.450000e-06	2.649709e-06	4.905423e-09	1.835030e+01	3.233771e+02
1.460000e-06	2.670367e-06	4.924300e-09	1.849337e+01	3.249089e+02
1.470000e-06	2.690199e-06	4.944230e-09	1.863071e+01	3.263096e+02
1.480000e-06	2.709076e-06	4.965938e-09	1.876144e+01	3.275950e+02
1.490000e-06	2.727052e-06	4.985022e-09	1.888594e+01	3.287863e+02
1.500000e-06	2.744043e-06	5.001777e-09	1.900361e+01	3.299037e+02
1.510000e-06	2.759933e-06	5.020518e-09	1.911365e+01	3.309593e+02
1.520000e-06	2.774733e-06	5.039891e-09	1.921615e+01	3.319549e+02
1.530000e-06	2.788472e-06	5.052389e-09	1.931129e+01	3.328835e+02
1.540000e-06	2.801226e-06	5.057727e-09	1.939962e+01	3.337339e+02
1.550000e-06	2.812796e-06	5.064848e-09	1.947975e+01	3.344979e+02
1.560000e-06	2.822974e-06	5.077470e-09	1.955024e+01	3.351741e+02
1.570000e-06	2.832033e-06	5.090266e-09	1.961297e+01	3.357695e+02
1.580000e-06	2.840207e-06	5.099348e-09	1.966958e+01	3.362968e+02
1.590000e-06	2.847463e-06	5.107751e-09	1.971983e+01	3.367689e+02
1.600000e-06	2.853708e-06	5.117506e-09	1.976308e+01	3.371939e+02
1.610000e-06	2.859026e-06	5.125698e-09	1.979991e+01	3.375721e+02
1.620000e-06	2.863520e-06	5.128382e-09	1.983103e+01	3.378967e+02
1.630000e-06	2.866953e-06	5.127913e-09	1.985481e+01	3.381578e+02
1.640000e-06	2.869098e-06	5.130172e-09	1.986966e+01	3.383476e+02
1.650000e-06	2.870171e-06	5.135584e-09	1.987709e+01	3.384648e+02
1.660000e-06	2.870374e-06	5.138184e-09	1.987850e+01	3.385161e+02
1.670000e-06	2.869645e-06	5.135974e-09	1.987345e+01	3.385132e+02
1.680000e-06	2.868014e-06	5.135083e-09	1.986215e+01	3.384684e+02
1.690000e-06	2.865581e-06	5.139032e-09	1.984531e+01	3.383884e+02
1.700000e-06	2.862392e-06	5.140415e-09	1.982322e+01	3.382711e+02
1.710000e-06	2.858295e-06	5.134722e-09	1.979485e+01	3.381055e+02
1.720000e-06	2.853002e-06	5.128740e-09	1.975819e+01	3.378757e+02
1.730000e-06	2.846585e-06	5.125759e-09	1.971375e+01	3.375680e+02
1.740000e-06	2.839340e-06	5.102342e-09	1.966357e+01	3.371764e+02
1.750000e-06	2.831073e-06	5.078862e-09	1.960632e+01	3.367069e+02
1.760000e-06	2.821247e-06	5.108554e-09	1.953827e+01	3.361763e+02
1.770000e-06	2.809931e-06	5.133788e-09	1.945990e+01	3.356078e+02
1.780000e-06	2.798139e-06	5.088045e-09	1.937824e+01	3.350233e+02
1.790000e-06	2.786208e-06	5.039496e-09	1.929562e+01	3.344366e+02
1.800000e-06	2.773029e-06	5.067815e-09	1.920435e+01	3.338492e+02
1.810000e-06	2.758186e-06	5.073271e-09	1.910155e+01	3.332500e+02
1.820000e-06	2.742584e-06	5.009378e-09	1.899350e+01	3.326200e+02
1.830000e-06	2.726330e-06	5.057341e-09	1.888093e+01	3.319383e+02
1.840000e-06	2.708743e-06	5.127094e-09	1.875914e+01	3.311886e+02
1.850000e-06	2.690074e-06	5.036139e-09	1.862985e+01	3.303634e+02
1.860000e-06	2.670825e-06	5.010700e-09	1.849654e+01	3.294643e+02
1.870000e-06	2.650529e-06	5.085888e-09	1.835598e+01	3.284989e+02
1.880000e-06	2.628934e-06	5.012802e-09	1.820643e+01	3.274764e+02
1.890000e-06	2.606449e-06	4.937196e-09	1.805071e+01	3.264029e+02
1.900000e-06	2.582984e-06	5.001329e-09	1.788821e+01	3.252786e+02
1.910000e-06	2.558533e-06	4.985921e-09	1.771887e+01	3.240977e+02
1.920000e-06	2.533434e-06	4.919842e-09	1.754506e+01	3.228512e+02
1.930000e-06	2.507531e-06	4.943412e-09	1.736567e+01	3.215296e+02
1.940000e-06	2.480808e-06	4.921340e-09	1.718060e+01	3.201264e+02
1.950000e-06	2.453399e-06	4.873760e-09	1.699078e+01	3.186393e+02
1.960000e-06	2.424859e-06	4.869535e-09	1.679313e+01	3.170703e+02
1.970000e-06	2.395004e-06	4.812841e-09	1.658637e+01	3.154241e+02
1.980000e-06	2.364288e-06	4.788846e-09	1.637365e+01	3.137066e+02
1.990000e-06	2.332887e-06	4.800516e-09	1.615618e+01	3.119237e+02
2.000000e-06	2.300709e-06	4.751484e-09	1.593334e+01	3.100810e+02
2.010000e-06	2.267777e-06	4.728898e-09	1.570527e+01	3.081840e+02
2.020000e-06	2.234043e-06	4.701622e-09	1.547165e+01	3.062382e+02
2.030000e-06	2.199599e-06	4.642040e-09	1.523311e+01	3.042484e+02
2.040000e-06	2.164567e-06	4.634879e-09	1.499050e+01	3.022177e+02
2.050000e-06	2.128786e-06	4.589525e-09	1.474270e+01	3.001451e+02
2.060000e-06	2.092169e-06	4.526419e-09	1.448911e+01	2.980255e+02
2.070000e-06	2.054635e-06	4.533862e-09	1.422918e+01	2.958502e+02
2.080000e-06	2.016165e-06	4.507032e-09	1.396276e+01	2.936096e+02
2.090000e-06	1.977033e-06	4.458686e-09	1.369175e+01	2.912965e+02
2.100000e-06	1.937301e-06	4.429861e-09	1.341659e+01	2.889106e+02
2.110000e-06	1.896872e-06	4.377530e-09	1.313660e+01	2.864588e+02
2.120000e-06	1.855793e-06	4.332842e-09	1.285212e+01	2.839547e+02
2.130000e-06	1.814150e-06	4.293150e-09	1.256372e+01	2.814139e+02
2.140000e-06	1.771947e-06	4.258241e-09	1.227145e+01	2.788478e+02
2.150000e-06	1.729202e-06	4.234811e-09	1.197543e+01	2.762587e+02
2.160000e-06	1.686029e-06	4.184831e-09	1.167643e+01	2.736376e+02
2.170000e-06	1.642360e-06	4.140679e-09	1.137401e+01	2.709661e+02
2.180000e-06	1.598044e-06	4.102212e-09	1.106710e+01	2.682221e+02
2.190000e-06	1.553107e-06	4.046959e-09	1.075589e+01	2.653882e+02
2.200000e-06	1.507634e-06	4.008249e-09	1.044098e+01	2.624579e+02
2.210000e-06	1.461745e-06	3.970551e-09	1.012317e+01	2.594388e+02
2.220000e-06	1.415469e-06	3.922537e-09	9.802692e+00	2.563497e+02
2.230000e-06	1.368629e-06	3.873983e-09	9.478306e+00	2.532135e+02
2.240000e-06	1.321139e-06	3.817042e-09	9.149423e+00	2.500479e+02
2.250000e-06	1.273001e-06	3.766093e-09	8.816048e+00	2.468570e+02
2.260000e-06	1.224379e-06	3.719618e-09	8.479320e+00	2.436285e+02
2.270000e-06	1.175387e-06	3.675320e-09	8.140032e+00	2.403364e+02
2.280000e-06	1.125902e-06	3.629767e-09	7.797324e+00	2.369501e+02
2.290000e-06	1.075960e-06	3.570292e-09	7.451460e+00	2.334453e+02
2.300000e-06	1.025617e-06	3.512586e-09	7.102810e+00	2.298129e+02
2.310000e-06	9.748900e-07	3.455193e-09	6.751507e+00	2.260631e+02
2.320000e-06	9.238510e-07	3.391545e-09	6.398041e+00	2.222219e+02
2.330000e-06	8.725055e-07	3.330622e-09	6.042453e+00	2.183218e+02
2.340000e-06	8.208661e-07	3.273379e-09	5.684829e+00	2.143899e+02
2.350000e-06	7.688369e-07	3.221371e-09	5.324506e+00	2.104377e+02
2.360000e-06	7.162473e-07	3.163859e-09	4.960302e+00	2.064568e+02
2.370000e-06	6.631899e-07	3.099156e-09	4.592858e+00	2.024223e+02
2.380000e-06	6.097675e-07	3.037064e-09	4.222886e+00	1.983017e+02
2.390000e-06	5.559521e-07	2.973119e-09	3.850193e+00	1.940668e+02
2.400000e-06	5.018297e-07	2.908725e-09	3.475374e+00	1.897034e+02
2.410000e-06	4.474816e-07	2.842976e-09	3.098991e+00	1.852148e+02
2.420000e-06	3.929903e-07	2.774353e-09	2.721617e+00	1.806179e+02
2.430000e-06	3.383621e-07	2.706291e-09	2.343294e+00	1.759344e+02
2.440000e-06	2.835785e-07	2.634969e-09	1.963895e+00	1.711785e+02
2.450000e-06	2.287078e-07	2.561242e-09	1.583894e+00	1.663493e+02
2.460000e-06	1.738001e-07	2.487330e-09	1.203636e+00	1.614278e+02
2.470000e-06	1.188745e-07	2.410294e-09	8.232541e-01	1.563824e+02
2.480000e-06	6.392760e-08	2.330905e-09	4.427244e-01	1.511789e+02
2.490000e-06	8.973242e-09	2.248838e-09	6.214332e-02	1.457924e+02
2.500000e-06	-4.599046e-08	2.165323e-09	-3.185025e-01	1.402148e+02
2.510000e-06	-1.009532e-07	2.079724e-09	-6.991415e-01	1.344557e+02
2.520000e-06	-1.558951e-07	1.989805e-09	-1.079637e+00	1.285365e+02
2.530000e-06	-2.108363e-07	1.899080e-09	-1.460126e+00	1.224786e+02
2.540000e-06	-2.657751e-07	1.805792e-09	-1.840600e+00	1.162914e+02
2.550000e-06	-3.206214e-07	1.708151e-09	-2.220433e+00	1.099649e+02
2.560000e-06	-3.753388e-07	1.608933e-09	-2.599372e+00	1.034691e+02
2.570000e-06	-4.299425e-07	1.507124e-09	-2.977525e+00	9.676105e+01
2.580000e-06	-4.843484e-07	1.402094e-09	-3.354308e+00	8.979634e+01
2.590000e-06	-5.384724e-07	1.293595e-09	-3.729139e+00	8.254099e+01
2.600000e-06	-5.922962e-07	1.178643e-09	-4.101890e+00	7.497846e+01
2.610000e-06	-6.457477e-07	1.057912e-09	-4.472064e+00	6.710946e+01
2.620000e-06	-6.987181e-07	9.350777e-10	-4.838905e+00	5.894456e+01
2.630000e-06	-7.512407e-07	8.084842e-10	-5.202645e+00	5.049263e+01
2.640000e-06	-8.033359e-07	6.733337e-10	-5.563425e+00	4.174980e+01
2.650000e-06	-8.550306e-07	5.331955e-10	-5.921432e+00	3.269332e+01
2.660000e-06	-9.064103e-07	3.929560e-10	-6.277257e+00	2.328293e+01
2.670000e-06	-9.575336e-07	2.494046e-10	-6.631307e+00	1.346913e+01
2.680000e-06	-1.008366e-06	9.534634e-11	-6.983342e+00	3.205627e+00
2.690000e-06	-1.058844e-06	-7.074182e-11	-7.332923e+00	-7.538679e+00
2.700000e-06	-1.108850e-06	-2.433797e-10	-7.679231e+00	-1.877188e+01
2.710000e-06	-1.158354e-06	-4.205889e-10	-8.022072e+00	-3.047753e+01
2.720000e-06	-1.207484e-06	-6.051719e-10	-8.362316e+00	-4.261859e+01
2.730000e-06	-1.256175e-06	-7.983355e-10	-8.699517e+00	-5.514421e+01
2.740000e-06	-1.304122e-06	-9.939691e-10	-9.031570e+00	-6.799551e+01
2.750000e-06	-1.351240e-06	-1.190794e-09	-9.357880e+00	-8.110770e+01
2.760000e-06	-1.397701e-06	-1.393202e-09	-9.679642e+00	-9.440777e+01
2.770000e-06	-1.443577e-06	-1.602734e-09	-9.997356e+00	-1.078095e+02
2.780000e-06	-1.489061e-06	-1.813282e-09	-1.031235e+01	-1.212091e+02
2.790000e-06	-1.534292e-06	-2.017189e-09	-1.062559e+01	-1.344853e+02
2.800000e-06	-1.579146e-06	-2.214646e-09	-1.093622e+01	-1.475051e+02
2.810000e-06	-1.623416e-06	-2.407410e-09	-1.124281e+01	-1.601364e+02
2.820000e-06	-1.667055e-06	-2.595710e-09	-1.154503e+01	-1.722619e+02
2.830000e-06	-1.710246e-06	-2.773736e-09	-1.184414e+01	-1.837931e+02
2.840000e-06	-1.753086e-06	-2.939054e-09	-1.214083e+01	-1.946770e+02
2.850000e-06	-1.795406e-06	-3.095398e-09	-1.243391e+01	-2.048964e+02
2.860000e-06	-1.837068e-06	-3.244693e-09	-1.272244e+01	-2.144608e+02
2.870000e-06	-1.878154e-06	-3.383721e-09	-1.300697e+01	-2.233952e+02
2.880000e-06	-1.918687e-06	-3.510833e-09	-1.328769e+01	-2.317275e+02
2.890000e-06	-1.958538e-06	-3.628689e-09	-1.356366e+01	-2.394812e+02
2.900000e-06	-1.997773e-06	-3.739186e-09	-1.383539e+01	-2.466741e+02
2.910000e-06	-2.036490e-06	-3.842193e-09	-1.410352e+01	-2.533236e+02
2.920000e-06	-2.074473e-06	-3.937472e-09	-1.436656e+01	-2.594541e+02
2.930000e-06	-2.111382e-06	-4.025107e-09	-1.462217e+01	-2.651030e+02
2.940000e-06	-2.147237e-06	-4.106340e-09	-1.487048e+01	-2.703224e+02
