# Temperatura_=_30.47
# Concentracion g/m^3_=_13400.0
# C_Vs_to_Am_M_A/Vsm_=_65563218390.804596
# pendiente_HvsI_1/m_=_3716.3
# ordenada_HvsI_A/m_=_1297.0
# frecuencia_Hz_=_300833.9068315785

Tiempo_(s)	Campo_(V.s)	Magnetizacion_(V.s)	Campo_(kA/m)	Magnetizacion_(A/m)
0.000000e+00	-2.860716e-06	-5.247855e-09	-1.980591e+01	-3.431290e+02
1.000000e-08	-2.860221e-06	-5.248917e-09	-1.980249e+01	-3.431919e+02
2.000000e-08	-2.858987e-06	-5.244709e-09	-1.979394e+01	-3.431777e+02
3.000000e-08	-2.856733e-06	-5.239333e-09	-1.977833e+01	-3.430911e+02
4.000000e-08	-2.853205e-06	-5.236464e-09	-1.975391e+01	-3.429420e+02
5.000000e-08	-2.848681e-06	-5.234041e-09	-1.972259e+01	-3.427407e+02
6.000000e-08	-2.843392e-06	-5.228719e-09	-1.968597e+01	-3.424929e+02
7.000000e-08	-2.837221e-06	-5.221273e-09	-1.964325e+01	-3.421970e+02
8.000000e-08	-2.830045e-06	-5.234225e-09	-1.959356e+01	-3.418446e+02
9.000000e-08	-2.821818e-06	-5.255263e-09	-1.953660e+01	-3.414240e+02
1.000000e-07	-2.812249e-06	-5.221378e-09	-1.947035e+01	-3.409262e+02
1.100000e-07	-2.801210e-06	-5.124816e-09	-1.939392e+01	-3.403502e+02
1.200000e-07	-2.789198e-06	-5.155613e-09	-1.931076e+01	-3.397058e+02
1.300000e-07	-2.776438e-06	-5.246005e-09	-1.922242e+01	-3.390115e+02
1.400000e-07	-2.762697e-06	-5.204711e-09	-1.912729e+01	-3.382897e+02
1.500000e-07	-2.748038e-06	-5.061392e-09	-1.902579e+01	-3.375586e+02
1.600000e-07	-2.732400e-06	-5.180622e-09	-1.891753e+01	-3.368257e+02
1.700000e-07	-2.715259e-06	-5.236117e-09	-1.879885e+01	-3.360839e+02
1.800000e-07	-2.696940e-06	-5.045839e-09	-1.867202e+01	-3.353129e+02
1.900000e-07	-2.678054e-06	-5.105468e-09	-1.854126e+01	-3.344856e+02
2.000000e-07	-2.658359e-06	-5.181434e-09	-1.840491e+01	-3.335768e+02
2.100000e-07	-2.637723e-06	-5.037721e-09	-1.826204e+01	-3.325716e+02
2.200000e-07	-2.616386e-06	-5.015072e-09	-1.811432e+01	-3.314701e+02
2.300000e-07	-2.594219e-06	-5.149521e-09	-1.796084e+01	-3.302863e+02
2.400000e-07	-2.570969e-06	-5.044064e-09	-1.779987e+01	-3.290422e+02
2.500000e-07	-2.546804e-06	-4.945440e-09	-1.763256e+01	-3.277585e+02
2.600000e-07	-2.521962e-06	-5.018098e-09	-1.746058e+01	-3.264456e+02
2.700000e-07	-2.496291e-06	-5.001186e-09	-1.728284e+01	-3.250990e+02
2.800000e-07	-2.469551e-06	-4.909902e-09	-1.709771e+01	-3.236998e+02
2.900000e-07	-2.441676e-06	-4.934490e-09	-1.690473e+01	-3.222222e+02
3.000000e-07	-2.412823e-06	-4.901852e-09	-1.670496e+01	-3.206429e+02
3.100000e-07	-2.383218e-06	-4.876501e-09	-1.649999e+01	-3.189514e+02
3.200000e-07	-2.352909e-06	-4.878870e-09	-1.629015e+01	-3.171544e+02
3.300000e-07	-2.321813e-06	-4.810209e-09	-1.607486e+01	-3.152753e+02
3.400000e-07	-2.289868e-06	-4.802290e-09	-1.585370e+01	-3.133463e+02
3.500000e-07	-2.257248e-06	-4.769448e-09	-1.562785e+01	-3.113975e+02
3.600000e-07	-2.224088e-06	-4.731467e-09	-1.539827e+01	-3.094457e+02
3.700000e-07	-2.190138e-06	-4.729450e-09	-1.516322e+01	-3.074885e+02
3.800000e-07	-2.154945e-06	-4.693551e-09	-1.491957e+01	-3.055053e+02
3.900000e-07	-2.118679e-06	-4.628820e-09	-1.466849e+01	-3.034642e+02
4.000000e-07	-2.081844e-06	-4.640647e-09	-1.441346e+01	-3.013347e+02
4.100000e-07	-2.044420e-06	-4.602065e-09	-1.415436e+01	-2.990986e+02
4.200000e-07	-2.006266e-06	-4.523766e-09	-1.389020e+01	-2.967573e+02
4.300000e-07	-1.967354e-06	-4.506982e-09	-1.362080e+01	-2.943317e+02
4.400000e-07	-1.927648e-06	-4.484231e-09	-1.334590e+01	-2.918546e+02
4.500000e-07	-1.887305e-06	-4.441898e-09	-1.306659e+01	-2.893588e+02
4.600000e-07	-1.846586e-06	-4.392922e-09	-1.278467e+01	-2.868654e+02
4.700000e-07	-1.805479e-06	-4.358078e-09	-1.250007e+01	-2.843755e+02
4.800000e-07	-1.763568e-06	-4.314657e-09	-1.220990e+01	-2.818704e+02
4.900000e-07	-1.720570e-06	-4.276766e-09	-1.191221e+01	-2.793184e+02
5.000000e-07	-1.676677e-06	-4.229287e-09	-1.160832e+01	-2.766859e+02
5.100000e-07	-1.632197e-06	-4.187132e-09	-1.130037e+01	-2.739501e+02
5.200000e-07	-1.587315e-06	-4.146983e-09	-1.098963e+01	-2.711060e+02
5.300000e-07	-1.542003e-06	-4.110562e-09	-1.067592e+01	-2.681677e+02
5.400000e-07	-1.496158e-06	-4.069258e-09	-1.035852e+01	-2.651618e+02
5.500000e-07	-1.449736e-06	-4.006306e-09	-1.003712e+01	-2.621163e+02
5.600000e-07	-1.402759e-06	-3.954654e-09	-9.711873e+00	-2.590493e+02
5.700000e-07	-1.355303e-06	-3.910681e-09	-9.383321e+00	-2.559612e+02
5.800000e-07	-1.307375e-06	-3.872581e-09	-9.051490e+00	-2.528347e+02
5.900000e-07	-1.259054e-06	-3.818289e-09	-8.716946e+00	-2.496409e+02
6.000000e-07	-1.210360e-06	-3.768408e-09	-8.379821e+00	-2.463498e+02
6.100000e-07	-1.161259e-06	-3.718033e-09	-8.039869e+00	-2.429418e+02
6.200000e-07	-1.111668e-06	-3.660337e-09	-7.696533e+00	-2.394146e+02
6.300000e-07	-1.061427e-06	-3.604843e-09	-7.348692e+00	-2.357837e+02
6.400000e-07	-1.010538e-06	-3.546485e-09	-6.996367e+00	-2.320764e+02
6.500000e-07	-9.590776e-07	-3.491093e-09	-6.640088e+00	-2.283208e+02
6.600000e-07	-9.071334e-07	-3.433312e-09	-6.280456e+00	-2.245355e+02
6.700000e-07	-8.548323e-07	-3.377778e-09	-5.918354e+00	-2.207222e+02
6.800000e-07	-8.022566e-07	-3.312763e-09	-5.554351e+00	-2.168655e+02
6.900000e-07	-7.494403e-07	-3.249170e-09	-5.188683e+00	-2.129388e+02
7.000000e-07	-6.964223e-07	-3.189142e-09	-4.821617e+00	-2.089134e+02
7.100000e-07	-6.432089e-07	-3.129586e-09	-4.453199e+00	-2.047696e+02
7.200000e-07	-5.897062e-07	-3.064200e-09	-4.082778e+00	-2.005021e+02
7.300000e-07	-5.359652e-07	-2.994899e-09	-3.710707e+00	-1.961208e+02
7.400000e-07	-4.820625e-07	-2.927141e-09	-3.337516e+00	-1.916452e+02
7.500000e-07	-4.279170e-07	-2.851543e-09	-2.962645e+00	-1.870949e+02
7.600000e-07	-3.736212e-07	-2.776635e-09	-2.586733e+00	-1.824804e+02
7.700000e-07	-3.192251e-07	-2.703074e-09	-2.210126e+00	-1.777971e+02
7.800000e-07	-2.647239e-07	-2.634741e-09	-1.832792e+00	-1.730254e+02
7.900000e-07	-2.101798e-07	-2.563260e-09	-1.455161e+00	-1.681359e+02
8.000000e-07	-1.555964e-07	-2.487235e-09	-1.077258e+00	-1.630985e+02
8.100000e-07	-1.009606e-07	-2.405604e-09	-6.989916e-01	-1.578908e+02
8.200000e-07	-4.627511e-08	-2.320243e-09	-3.203816e-01	-1.525039e+02
8.300000e-07	8.398200e-09	-2.233976e-09	5.814418e-02	-1.469421e+02
8.400000e-07	6.304171e-08	-2.142965e-09	4.364636e-01	-1.412182e+02
8.500000e-07	1.176721e-07	-2.053090e-09	8.146920e-01	-1.353455e+02
8.600000e-07	1.722793e-07	-1.962214e-09	1.192760e+00	-1.293299e+02
8.700000e-07	2.268391e-07	-1.871710e-09	1.570500e+00	-1.231648e+02
8.800000e-07	2.813081e-07	-1.776405e-09	1.947611e+00	-1.168317e+02
8.900000e-07	3.357020e-07	-1.676237e-09	2.324203e+00	-1.103040e+02
9.000000e-07	3.900412e-07	-1.567992e-09	2.700415e+00	-1.035542e+02
9.100000e-07	4.442530e-07	-1.458438e-09	3.075746e+00	-9.656017e+01
9.200000e-07	4.982750e-07	-1.351332e-09	3.449762e+00	-8.930894e+01
9.300000e-07	5.520752e-07	-1.238352e-09	3.822243e+00	-8.179578e+01
9.400000e-07	6.056632e-07	-1.120336e-09	4.193255e+00	-7.401970e+01
9.500000e-07	6.590234e-07	-9.960686e-10	4.562689e+00	-6.597683e+01
9.600000e-07	7.121288e-07	-8.683846e-10	4.930360e+00	-5.765452e+01
9.700000e-07	7.649684e-07	-7.351187e-10	5.296190e+00	-4.902832e+01
9.800000e-07	8.175552e-07	-5.980940e-10	5.660270e+00	-4.006304e+01
9.900000e-07	8.698696e-07	-4.551632e-10	6.022464e+00	-3.071740e+01
1.000000e-06	9.218138e-07	-3.069089e-10	6.382095e+00	-2.095067e+01
1.010000e-06	9.733526e-07	-1.508120e-10	6.738919e+00	-1.072901e+01
1.020000e-06	1.024218e-06	1.557916e-11	7.091084e+00	-2.980283e-02
1.030000e-06	1.074327e-06	1.886254e-10	7.438003e+00	1.115678e+01
1.040000e-06	1.123878e-06	3.684266e-10	7.781066e+00	2.282838e+01
1.050000e-06	1.172984e-06	5.531206e-10	8.121051e+00	3.497175e+01
1.060000e-06	1.221776e-06	7.454686e-10	8.458857e+00	4.756289e+01
1.070000e-06	1.270312e-06	9.431384e-10	8.794891e+00	6.056518e+01
1.080000e-06	1.318516e-06	1.144549e-09	9.128628e+00	7.392542e+01
1.090000e-06	1.366252e-06	1.349272e-09	9.459121e+00	8.756945e+01
1.100000e-06	1.413460e-06	1.558705e-09	9.785962e+00	1.013992e+02
1.110000e-06	1.460164e-06	1.770871e-09	1.010931e+01	1.152938e+02
1.120000e-06	1.506355e-06	1.981035e-09	1.042911e+01	1.291148e+02
1.130000e-06	1.551953e-06	2.184752e-09	1.074480e+01	1.427167e+02
1.140000e-06	1.597105e-06	2.383442e-09	1.105741e+01	1.559599e+02
1.150000e-06	1.641928e-06	2.579544e-09	1.136774e+01	1.687226e+02
1.160000e-06	1.686380e-06	2.766250e-09	1.167550e+01	1.809106e+02
1.170000e-06	1.730298e-06	2.941391e-09	1.197956e+01	1.924615e+02
1.180000e-06	1.773314e-06	3.103348e-09	1.227738e+01	2.033427e+02
1.190000e-06	1.815278e-06	3.256663e-09	1.256791e+01	2.135459e+02
1.200000e-06	1.856447e-06	3.403372e-09	1.285295e+01	2.230785e+02
1.210000e-06	1.897115e-06	3.541247e-09	1.313451e+01	2.319561e+02
1.220000e-06	1.937262e-06	3.666172e-09	1.341246e+01	2.401980e+02
1.230000e-06	1.976764e-06	3.779062e-09	1.368595e+01	2.478259e+02
1.240000e-06	2.015610e-06	3.885587e-09	1.395490e+01	2.548658e+02
1.250000e-06	2.053710e-06	3.982119e-09	1.421867e+01	2.613516e+02
1.260000e-06	2.091044e-06	4.069848e-09	1.447715e+01	2.673271e+02
1.270000e-06	2.127845e-06	4.152692e-09	1.473194e+01	2.728462e+02
1.280000e-06	2.164142e-06	4.233805e-09	1.498324e+01	2.779687e+02
1.290000e-06	2.199579e-06	4.309493e-09	1.522859e+01	2.827538e+02
1.300000e-06	2.233924e-06	4.376261e-09	1.546637e+01	2.872521e+02
1.310000e-06	2.267347e-06	4.437521e-09	1.569777e+01	2.914998e+02
1.320000e-06	2.300053e-06	4.496444e-09	1.592421e+01	2.955153e+02
1.330000e-06	2.332022e-06	4.553162e-09	1.614555e+01	2.993008e+02
1.340000e-06	2.363229e-06	4.605814e-09	1.636160e+01	3.028478e+02
1.350000e-06	2.393660e-06	4.654147e-09	1.657229e+01	3.061453e+02
1.360000e-06	2.423234e-06	4.696622e-09	1.677704e+01	3.091882e+02
1.370000e-06	2.452101e-06	4.736082e-09	1.697690e+01	3.119829e+02
1.380000e-06	2.480299e-06	4.775357e-09	1.717213e+01	3.145494e+02
1.390000e-06	2.507364e-06	4.813321e-09	1.735951e+01	3.169188e+02
1.400000e-06	2.533143e-06	4.846306e-09	1.753799e+01	3.191272e+02
1.410000e-06	2.558005e-06	4.874871e-09	1.771011e+01	3.212080e+02
1.420000e-06	2.582028e-06	4.902641e-09	1.787644e+01	3.231858e+02
1.430000e-06	2.605193e-06	4.931153e-09	1.803682e+01	3.250718e+02
1.440000e-06	2.627506e-06	4.958965e-09	1.819130e+01	3.268649e+02
1.450000e-06	2.648963e-06	4.982559e-09	1.833985e+01	3.285553e+02
1.460000e-06	2.669683e-06	5.003198e-09	1.848331e+01	3.301309e+02
1.470000e-06	2.689585e-06	5.022846e-09	1.862110e+01	3.315833e+02
1.480000e-06	2.708541e-06	5.044654e-09	1.875234e+01	3.329127e+02
1.490000e-06	2.726573e-06	5.067802e-09	1.887718e+01	3.341286e+02
1.500000e-06	2.743587e-06	5.086056e-09	1.899498e+01	3.352473e+02
1.510000e-06	2.759449e-06	5.098790e-09	1.910480e+01	3.362875e+02
1.520000e-06	2.774237e-06	5.111990e-09	1.920718e+01	3.372642e+02
1.530000e-06	2.788049e-06	5.126711e-09	1.930281e+01	3.381849e+02
1.540000e-06	2.800841e-06	5.139652e-09	1.939137e+01	3.390482e+02
1.550000e-06	2.812442e-06	5.150306e-09	1.947169e+01	3.398458e+02
1.560000e-06	2.822672e-06	5.159729e-09	1.954251e+01	3.405671e+02
1.570000e-06	2.831799e-06	5.171496e-09	1.960570e+01	3.412043e+02
1.580000e-06	2.840084e-06	5.185507e-09	1.966307e+01	3.417565e+02
1.590000e-06	2.847394e-06	5.196851e-09	1.971368e+01	3.422312e+02
1.600000e-06	2.853730e-06	5.201232e-09	1.975754e+01	3.426420e+02
1.610000e-06	2.859189e-06	5.203407e-09	1.979534e+01	3.430045e+02
1.620000e-06	2.863833e-06	5.210212e-09	1.982749e+01	3.433312e+02
1.630000e-06	2.867445e-06	5.218042e-09	1.985250e+01	3.436265e+02
1.640000e-06	2.869730e-06	5.221109e-09	1.986831e+01	3.438864e+02
1.650000e-06	2.870912e-06	5.223400e-09	1.987650e+01	3.440993e+02
1.660000e-06	2.871201e-06	5.228610e-09	1.987850e+01	3.442514e+02
1.670000e-06	2.870611e-06	5.232360e-09	1.987442e+01	3.443311e+02
1.680000e-06	2.869153e-06	5.230390e-09	1.986432e+01	3.443336e+02
1.690000e-06	2.866782e-06	5.227142e-09	1.984791e+01	3.442623e+02
1.700000e-06	2.863662e-06	5.225745e-09	1.982631e+01	3.441261e+02
1.710000e-06	2.859655e-06	5.225879e-09	1.979856e+01	3.439356e+02
1.720000e-06	2.854412e-06	5.226914e-09	1.976226e+01	3.436981e+02
1.730000e-06	2.848088e-06	5.227944e-09	1.971848e+01	3.434134e+02
1.740000e-06	2.840989e-06	5.194866e-09	1.966933e+01	3.430745e+02
1.750000e-06	2.832879e-06	5.166915e-09	1.961318e+01	3.426698e+02
1.760000e-06	2.823169e-06	5.203942e-09	1.954595e+01	3.421893e+02
1.770000e-06	2.811894e-06	5.276325e-09	1.946789e+01	3.416301e+02
1.780000e-06	2.800127e-06	5.175326e-09	1.938643e+01	3.409994e+02
1.790000e-06	2.788291e-06	5.101208e-09	1.930448e+01	3.403144e+02
1.800000e-06	2.775265e-06	5.185426e-09	1.921430e+01	3.395971e+02
1.810000e-06	2.760491e-06	5.196288e-09	1.911201e+01	3.388673e+02
1.820000e-06	2.744939e-06	5.071686e-09	1.900434e+01	3.381353e+02
1.830000e-06	2.728799e-06	5.098349e-09	1.889260e+01	3.373971e+02
1.840000e-06	2.711264e-06	5.259104e-09	1.877119e+01	3.366349e+02
1.850000e-06	2.692647e-06	5.108056e-09	1.864230e+01	3.358224e+02
1.860000e-06	2.673507e-06	5.017863e-09	1.850979e+01	3.349332e+02
1.870000e-06	2.653238e-06	5.204755e-09	1.836945e+01	3.339496e+02
1.880000e-06	2.631593e-06	5.103537e-09	1.821960e+01	3.328684e+02
1.890000e-06	2.609128e-06	4.955610e-09	1.806406e+01	3.317009e+02
1.900000e-06	2.585741e-06	5.107108e-09	1.790214e+01	3.304682e+02
1.910000e-06	2.561404e-06	5.078796e-09	1.773365e+01	3.291921e+02
1.920000e-06	2.536452e-06	4.967206e-09	1.756090e+01	3.278857e+02
1.930000e-06	2.510629e-06	5.008358e-09	1.738211e+01	3.265478e+02
1.940000e-06	2.483939e-06	4.992099e-09	1.719733e+01	3.251624e+02
1.950000e-06	2.456707e-06	4.933577e-09	1.700879e+01	3.237042e+02
1.960000e-06	2.428274e-06	4.954855e-09	1.681194e+01	3.221486e+02
1.970000e-06	2.398437e-06	4.879925e-09	1.660536e+01	3.204816e+02
1.980000e-06	2.367803e-06	4.860192e-09	1.639327e+01	3.187061e+02
1.990000e-06	2.336457e-06	4.904871e-09	1.617625e+01	3.168424e+02
2.000000e-06	2.304363e-06	4.788239e-09	1.595405e+01	3.149218e+02
2.010000e-06	2.271495e-06	4.785436e-09	1.572649e+01	3.129756e+02
2.020000e-06	2.237779e-06	4.801483e-09	1.549306e+01	3.110243e+02
2.030000e-06	2.203411e-06	4.679714e-09	1.525512e+01	3.090699e+02
2.040000e-06	2.168487e-06	4.704711e-09	1.501332e+01	3.070951e+02
2.050000e-06	2.132810e-06	4.702767e-09	1.476632e+01	3.050697e+02
2.060000e-06	2.096289e-06	4.585627e-09	1.451347e+01	3.029617e+02
2.070000e-06	2.058720e-06	4.609704e-09	1.425336e+01	3.007494e+02
2.080000e-06	2.020223e-06	4.588305e-09	1.398683e+01	2.984299e+02
2.090000e-06	1.981153e-06	4.502009e-09	1.371633e+01	2.960202e+02
2.100000e-06	1.941483e-06	4.498383e-09	1.344168e+01	2.935516e+02
2.110000e-06	1.901140e-06	4.447934e-09	1.316237e+01	2.910579e+02
2.120000e-06	1.860173e-06	4.409015e-09	1.287874e+01	2.885635e+02
2.130000e-06	1.818584e-06	4.381716e-09	1.259080e+01	2.860742e+02
2.140000e-06	1.776357e-06	4.325085e-09	1.229845e+01	2.835752e+02
2.150000e-06	1.733617e-06	4.310949e-09	1.200254e+01	2.810366e+02
2.160000e-06	1.690500e-06	4.266081e-09	1.170403e+01	2.784242e+02
2.170000e-06	1.646909e-06	4.211256e-09	1.140222e+01	2.757120e+02
2.180000e-06	1.602630e-06	4.176736e-09	1.109566e+01	2.728909e+02
2.190000e-06	1.557733e-06	4.123489e-09	1.078482e+01	2.699713e+02
2.200000e-06	1.512338e-06	4.083165e-09	1.047054e+01	2.669778e+02
2.210000e-06	1.466474e-06	4.047811e-09	1.015300e+01	2.639392e+02
2.220000e-06	1.420204e-06	3.992053e-09	9.832655e+00	2.608764e+02
2.230000e-06	1.373395e-06	3.948979e-09	9.508573e+00	2.577942e+02
2.240000e-06	1.325884e-06	3.896294e-09	9.179639e+00	2.546786e+02
2.250000e-06	1.277717e-06	3.850134e-09	8.846158e+00	2.515022e+02
2.260000e-06	1.229128e-06	3.800820e-09	8.509759e+00	2.482345e+02
2.270000e-06	1.180211e-06	3.741494e-09	8.171083e+00	2.448528e+02
2.280000e-06	1.130833e-06	3.702700e-09	7.829222e+00	2.413508e+02
2.290000e-06	1.080972e-06	3.643627e-09	7.484010e+00	2.377405e+02
2.300000e-06	1.030662e-06	3.585981e-09	7.135698e+00	2.340475e+02
2.310000e-06	9.799578e-07	3.528680e-09	6.784649e+00	2.303006e+02
2.320000e-06	9.289187e-07	3.463243e-09	6.431285e+00	2.265213e+02
2.330000e-06	8.775745e-07	3.409440e-09	6.075808e+00	2.227151e+02
2.340000e-06	8.259278e-07	3.353569e-09	5.718236e+00	2.188702e+02
2.350000e-06	7.738433e-07	3.297623e-09	5.357635e+00	2.149613e+02
2.360000e-06	7.212778e-07	3.239089e-09	4.993702e+00	2.109596e+02
2.370000e-06	6.683005e-07	3.173274e-09	4.626918e+00	2.068426e+02
2.380000e-06	6.148748e-07	3.111729e-09	4.257030e+00	2.026016e+02
2.390000e-06	5.610265e-07	3.044960e-09	3.884216e+00	1.982437e+02
2.400000e-06	5.068772e-07	2.973602e-09	3.509319e+00	1.937869e+02
2.410000e-06	4.525040e-07	2.908846e-09	3.132871e+00	1.892517e+02
2.420000e-06	3.979658e-07	2.842121e-09	2.755281e+00	1.846512e+02
2.430000e-06	3.432798e-07	2.777555e-09	2.376667e+00	1.799843e+02
2.440000e-06	2.884849e-07	2.703901e-09	1.997299e+00	1.752342e+02
2.450000e-06	2.336312e-07	2.624434e-09	1.617525e+00	1.703730e+02
2.460000e-06	1.787281e-07	2.551733e-09	1.237408e+00	1.653699e+02
2.470000e-06	1.237973e-07	2.473727e-09	8.570992e-01	1.602003e+02
2.480000e-06	6.885652e-08	2.391167e-09	4.767219e-01	1.548523e+02
2.490000e-06	1.393055e-08	2.304700e-09	9.644692e-02	1.493275e+02
2.500000e-06	-4.097530e-08	2.221092e-09	-2.836888e-01	1.436375e+02
2.510000e-06	-9.589854e-08	2.139060e-09	-6.639449e-01	1.377963e+02
2.520000e-06	-1.508419e-07	2.048934e-09	-1.044341e+00	1.318117e+02
2.530000e-06	-2.057489e-07	1.952361e-09	-1.424484e+00	1.256803e+02
2.540000e-06	-2.606158e-07	1.854374e-09	-1.804350e+00	1.193856e+02
2.550000e-06	-3.154538e-07	1.756833e-09	-2.184016e+00	1.129024e+02
2.560000e-06	-3.702202e-07	1.656286e-09	-2.563186e+00	1.062027e+02
2.570000e-06	-4.248790e-07	1.549091e-09	-2.941611e+00	9.926289e+01
2.580000e-06	-4.793423e-07	1.438294e-09	-3.318683e+00	9.206782e+01
2.590000e-06	-5.335653e-07	1.328529e-09	-3.694091e+00	8.461131e+01
2.600000e-06	-5.875035e-07	1.212538e-09	-4.067527e+00	7.689210e+01
2.610000e-06	-6.410208e-07	1.089838e-09	-4.438050e+00	6.890750e+01
2.620000e-06	-6.941019e-07	9.615052e-10	-4.805552e+00	6.064712e+01
2.630000e-06	-7.467861e-07	8.306942e-10	-5.170306e+00	5.208909e+01
2.640000e-06	-7.989949e-07	6.952752e-10	-5.531769e+00	4.320024e+01
2.650000e-06	-8.507874e-07	5.532934e-10	-5.890350e+00	3.394007e+01
2.660000e-06	-9.022777e-07	4.076444e-10	-6.246838e+00	2.426714e+01
2.670000e-06	-9.534397e-07	2.558088e-10	-6.601054e+00	1.414570e+01
2.680000e-06	-1.004310e-06	9.764319e-11	-6.953247e+00	3.550492e+00
2.690000e-06	-1.054851e-06	-7.151378e-11	-7.303164e+00	-7.531047e+00
2.700000e-06	-1.104941e-06	-2.502544e-10	-7.649956e+00	-1.909907e+01
2.710000e-06	-1.154503e-06	-4.360971e-10	-7.993098e+00	-3.114258e+01
2.720000e-06	-1.203629e-06	-6.254685e-10	-8.333214e+00	-4.363998e+01
2.730000e-06	-1.252344e-06	-8.205828e-10	-8.670488e+00	-5.655759e+01
2.740000e-06	-1.300334e-06	-1.024543e-09	-9.002742e+00	-6.984619e+01
2.750000e-06	-1.347474e-06	-1.233901e-09	-9.329117e+00	-8.343643e+01
2.760000e-06	-1.393958e-06	-1.447002e-09	-9.650945e+00	-9.723547e+01
2.770000e-06	-1.439857e-06	-1.661839e-09	-9.968722e+00	-1.111269e+02
2.780000e-06	-1.485296e-06	-1.878299e-09	-1.028331e+01	-1.249754e+02
2.790000e-06	-1.530447e-06	-2.090566e-09	-1.059591e+01	-1.386361e+02
2.800000e-06	-1.575288e-06	-2.294066e-09	-1.090636e+01	-1.519668e+02
2.810000e-06	-1.619645e-06	-2.488682e-09	-1.121347e+01	-1.648409e+02
2.820000e-06	-1.663391e-06	-2.678422e-09	-1.151634e+01	-1.771581e+02
2.830000e-06	-1.706642e-06	-2.859205e-09	-1.181578e+01	-1.888488e+02
2.840000e-06	-1.749555e-06	-3.027653e-09	-1.211289e+01	-1.998745e+02
2.850000e-06	-1.791984e-06	-3.187099e-09	-1.240664e+01	-2.102224e+02
2.860000e-06	-1.833754e-06	-3.338359e-09	-1.269583e+01	-2.198971e+02
2.870000e-06	-1.874951e-06	-3.480798e-09	-1.298105e+01	-2.289131e+02
2.880000e-06	-1.915535e-06	-3.610303e-09	-1.326203e+01	-2.372892e+02
2.890000e-06	-1.955394e-06	-3.728160e-09	-1.353800e+01	-2.450462e+02
2.900000e-06	-1.994694e-06	-3.837560e-09	-1.381009e+01	-2.522092e+02
2.910000e-06	-2.033483e-06	-3.939109e-09	-1.407864e+01	-2.588099e+02
2.920000e-06	-2.071531e-06	-4.033717e-09	-1.434206e+01	-2.648902e+02
2.930000e-06	-2.108543e-06	-4.121432e-09	-1.459830e+01	-2.705018e+02
2.940000e-06	-2.144480e-06	-4.201723e-09	-1.484711e+01	-2.757038e+02
