# Temperatura_=_29.09
# Concentracion g/m^3_=_13400.0
# C_Vs_to_Am_M_A/Vsm_=_65563218390.804596
# pendiente_HvsI_1/m_=_3716.3
# ordenada_HvsI_A/m_=_1297.0
# frecuencia_Hz_=_300836.7160270499

Tiempo_(s)	Campo_(V.s)	Magnetizacion_(V.s)	Campo_(kA/m)	Magnetizacion_(A/m)
0.000000e+00	-2.860208e-06	-5.245050e-09	-1.980526e+01	-3.425998e+02
1.000000e-08	-2.859206e-06	-5.240073e-09	-1.979832e+01	-3.426390e+02
2.000000e-08	-2.857235e-06	-5.235210e-09	-1.978467e+01	-3.426069e+02
3.000000e-08	-2.854006e-06	-5.234490e-09	-1.976231e+01	-3.424916e+02
4.000000e-08	-2.849748e-06	-5.232629e-09	-1.973283e+01	-3.422891e+02
5.000000e-08	-2.844721e-06	-5.227401e-09	-1.969802e+01	-3.420053e+02
6.000000e-08	-2.838829e-06	-5.223545e-09	-1.965722e+01	-3.416539e+02
7.000000e-08	-2.831987e-06	-5.230238e-09	-1.960985e+01	-3.412515e+02
8.000000e-08	-2.824129e-06	-5.240104e-09	-1.955543e+01	-3.408119e+02
9.000000e-08	-2.815009e-06	-5.214343e-09	-1.949228e+01	-3.403408e+02
1.000000e-07	-2.804459e-06	-5.165045e-09	-1.941923e+01	-3.398349e+02
1.100000e-07	-2.792768e-06	-5.170001e-09	-1.933827e+01	-3.392844e+02
1.200000e-07	-2.780247e-06	-5.204747e-09	-1.925158e+01	-3.386781e+02
1.300000e-07	-2.766775e-06	-5.180122e-09	-1.915829e+01	-3.380097e+02
1.400000e-07	-2.752311e-06	-5.101107e-09	-1.905814e+01	-3.372810e+02
1.500000e-07	-2.736909e-06	-5.169384e-09	-1.895148e+01	-3.365026e+02
1.600000e-07	-2.720192e-06	-5.181180e-09	-1.883573e+01	-3.356889e+02
1.700000e-07	-2.702172e-06	-5.076350e-09	-1.871095e+01	-3.348527e+02
1.800000e-07	-2.683436e-06	-5.094145e-09	-1.858122e+01	-3.339980e+02
1.900000e-07	-2.664026e-06	-5.106973e-09	-1.844682e+01	-3.331175e+02
2.000000e-07	-2.643680e-06	-5.030752e-09	-1.830593e+01	-3.321935e+02
2.100000e-07	-2.622532e-06	-5.020887e-09	-1.815949e+01	-3.312034e+02
2.200000e-07	-2.600597e-06	-5.084633e-09	-1.800761e+01	-3.301273e+02
2.300000e-07	-2.577637e-06	-5.033638e-09	-1.784862e+01	-3.289551e+02
2.400000e-07	-2.553729e-06	-4.987741e-09	-1.768307e+01	-3.276897e+02
2.500000e-07	-2.529076e-06	-4.992694e-09	-1.751236e+01	-3.263448e+02
2.600000e-07	-2.503627e-06	-4.947127e-09	-1.733614e+01	-3.249395e+02
2.700000e-07	-2.477149e-06	-4.909618e-09	-1.715280e+01	-3.234898e+02
2.800000e-07	-2.449576e-06	-4.922045e-09	-1.696188e+01	-3.220019e+02
2.900000e-07	-2.421055e-06	-4.872270e-09	-1.676438e+01	-3.204701e+02
3.000000e-07	-2.391690e-06	-4.873728e-09	-1.656105e+01	-3.188789e+02
3.100000e-07	-2.361558e-06	-4.871564e-09	-1.635240e+01	-3.172099e+02
3.200000e-07	-2.330711e-06	-4.794028e-09	-1.613880e+01	-3.154499e+02
3.300000e-07	-2.299025e-06	-4.783447e-09	-1.591940e+01	-3.135969e+02
3.400000e-07	-2.266636e-06	-4.760959e-09	-1.569512e+01	-3.116616e+02
3.500000e-07	-2.233741e-06	-4.702884e-09	-1.546735e+01	-3.096639e+02
3.600000e-07	-2.200076e-06	-4.700885e-09	-1.523424e+01	-3.076250e+02
3.700000e-07	-2.165262e-06	-4.695033e-09	-1.499317e+01	-3.055597e+02
3.800000e-07	-2.129372e-06	-4.624003e-09	-1.474465e+01	-3.034706e+02
3.900000e-07	-2.092764e-06	-4.621901e-09	-1.449116e+01	-3.013475e+02
4.000000e-07	-2.055485e-06	-4.602532e-09	-1.423303e+01	-2.991725e+02
4.100000e-07	-2.017464e-06	-4.522701e-09	-1.396975e+01	-2.969280e+02
4.200000e-07	-1.978707e-06	-4.484803e-09	-1.370138e+01	-2.946043e+02
4.300000e-07	-1.939214e-06	-4.471755e-09	-1.342791e+01	-2.922044e+02
4.400000e-07	-1.899065e-06	-4.434107e-09	-1.314991e+01	-2.897430e+02
4.500000e-07	-1.858471e-06	-4.393747e-09	-1.286882e+01	-2.872399e+02
4.600000e-07	-1.817504e-06	-4.362827e-09	-1.258515e+01	-2.847118e+02
4.700000e-07	-1.775877e-06	-4.316901e-09	-1.229690e+01	-2.821639e+02
4.800000e-07	-1.733293e-06	-4.277494e-09	-1.200203e+01	-2.795870e+02
4.900000e-07	-1.689719e-06	-4.230139e-09	-1.170031e+01	-2.769598e+02
5.000000e-07	-1.645409e-06	-4.188564e-09	-1.139349e+01	-2.742569e+02
5.100000e-07	-1.600682e-06	-4.147440e-09	-1.108378e+01	-2.714585e+02
5.200000e-07	-1.555548e-06	-4.107983e-09	-1.077125e+01	-2.685590e+02
5.300000e-07	-1.509831e-06	-4.067351e-09	-1.045469e+01	-2.655689e+02
5.400000e-07	-1.463583e-06	-4.016667e-09	-1.013445e+01	-2.625115e+02
5.500000e-07	-1.416841e-06	-3.957662e-09	-9.810793e+00	-2.594136e+02
5.600000e-07	-1.369515e-06	-3.906042e-09	-9.483083e+00	-2.562943e+02
5.700000e-07	-1.321716e-06	-3.873397e-09	-9.152105e+00	-2.531564e+02
5.800000e-07	-1.273550e-06	-3.825272e-09	-8.818584e+00	-2.499845e+02
5.900000e-07	-1.225002e-06	-3.775750e-09	-8.482416e+00	-2.467496e+02
6.000000e-07	-1.176094e-06	-3.726993e-09	-8.143760e+00	-2.434189e+02
6.100000e-07	-1.126670e-06	-3.668470e-09	-7.801528e+00	-2.399685e+02
6.200000e-07	-1.076572e-06	-3.605210e-09	-7.454630e+00	-2.363912e+02
6.300000e-07	-1.025817e-06	-3.548691e-09	-7.103177e+00	-2.327001e+02
6.400000e-07	-9.745132e-07	-3.495012e-09	-6.747930e+00	-2.289229e+02
6.500000e-07	-9.227758e-07	-3.439271e-09	-6.389680e+00	-2.250920e+02
6.600000e-07	-8.705856e-07	-3.387992e-09	-6.028293e+00	-2.212323e+02
6.700000e-07	-8.180665e-07	-3.328766e-09	-5.664629e+00	-2.173522e+02
6.800000e-07	-7.653673e-07	-3.263844e-09	-5.299718e+00	-2.134410e+02
6.900000e-07	-7.124425e-07	-3.195460e-09	-4.933245e+00	-2.094732e+02
7.000000e-07	-6.592768e-07	-3.130452e-09	-4.565104e+00	-2.054181e+02
7.100000e-07	-6.058867e-07	-3.067525e-09	-4.195409e+00	-2.012508e+02
7.200000e-07	-5.522828e-07	-3.004353e-09	-3.824233e+00	-1.969602e+02
7.300000e-07	-4.984432e-07	-2.937198e-09	-3.451426e+00	-1.925508e+02
7.400000e-07	-4.443373e-07	-2.865711e-09	-3.076774e+00	-1.880385e+02
7.500000e-07	-3.900569e-07	-2.795473e-09	-2.700915e+00	-1.834412e+02
7.600000e-07	-3.356668e-07	-2.719582e-09	-2.324295e+00	-1.787695e+02
7.700000e-07	-2.812134e-07	-2.644446e-09	-1.947237e+00	-1.740199e+02
7.800000e-07	-2.267036e-07	-2.571824e-09	-1.569789e+00	-1.691740e+02
7.900000e-07	-1.720997e-07	-2.499584e-09	-1.191689e+00	-1.642037e+02
8.000000e-07	-1.174329e-07	-2.421955e-09	-8.131537e-01	-1.590798e+02
8.100000e-07	-6.272239e-08	-2.339530e-09	-4.343157e-01	-1.537811e+02
8.200000e-07	-8.017841e-09	-2.253655e-09	-5.551883e-02	-1.482995e+02
8.300000e-07	4.666497e-08	-2.164452e-09	3.231275e-01	-1.426407e+02
8.400000e-07	1.013080e-07	-2.073153e-09	7.014981e-01	-1.368184e+02
8.500000e-07	1.559213e-07	-1.980847e-09	1.079663e+00	-1.308461e+02
8.600000e-07	2.105362e-07	-1.892725e-09	1.457840e+00	-1.247292e+02
8.700000e-07	2.650871e-07	-1.803511e-09	1.835572e+00	-1.184604e+02
8.800000e-07	3.195730e-07	-1.709083e-09	2.212855e+00	-1.120195e+02
8.900000e-07	3.740076e-07	-1.602657e-09	2.589782e+00	-1.053790e+02
9.000000e-07	4.283390e-07	-1.491702e-09	2.965996e+00	-9.851015e+01
9.100000e-07	4.823985e-07	-1.382189e-09	3.340326e+00	-9.138996e+01
9.200000e-07	5.362122e-07	-1.270270e-09	3.712954e+00	-8.400382e+01
9.300000e-07	5.898972e-07	-1.152861e-09	4.084691e+00	-7.634442e+01
9.400000e-07	6.433653e-07	-1.030809e-09	4.454926e+00	-6.840695e+01
9.500000e-07	6.965208e-07	-9.091916e-10	4.822997e+00	-6.018320e+01
9.600000e-07	7.493835e-07	-7.822313e-10	5.189040e+00	-5.165682e+01
9.700000e-07	8.020335e-07	-6.451962e-10	5.553610e+00	-4.280184e+01
9.800000e-07	8.544647e-07	-4.985982e-10	5.916665e+00	-3.358493e+01
9.900000e-07	9.065639e-07	-3.481135e-10	6.277422e+00	-2.397024e+01
1.000000e-06	9.582158e-07	-1.926130e-10	6.635081e+00	-1.392506e+01
1.010000e-06	1.009283e-06	-2.959585e-11	6.988694e+00	-3.424166e+00
1.020000e-06	1.059631e-06	1.396865e-10	7.337324e+00	7.548006e+00
1.030000e-06	1.109339e-06	3.139394e-10	7.681523e+00	1.899726e+01
1.040000e-06	1.158567e-06	4.937700e-10	8.022395e+00	3.092012e+01
1.050000e-06	1.207453e-06	6.824053e-10	8.360905e+00	4.330320e+01
1.060000e-06	1.256104e-06	8.788273e-10	8.697780e+00	5.612035e+01
1.070000e-06	1.304458e-06	1.081804e-09	9.032603e+00	6.932769e+01
1.080000e-06	1.352330e-06	1.289212e-09	9.364088e+00	8.285817e+01
1.090000e-06	1.399647e-06	1.498944e-09	9.691731e+00	9.661809e+01
1.100000e-06	1.446478e-06	1.708160e-09	1.001601e+01	1.104879e+02
1.110000e-06	1.492814e-06	1.916765e-09	1.033686e+01	1.243286e+02
1.120000e-06	1.538601e-06	2.121836e-09	1.065391e+01	1.379928e+02
1.130000e-06	1.583854e-06	2.321358e-09	1.096725e+01	1.513387e+02
1.140000e-06	1.628713e-06	2.516883e-09	1.127788e+01	1.642425e+02
1.150000e-06	1.673267e-06	2.705555e-09	1.158639e+01	1.766078e+02
1.160000e-06	1.717308e-06	2.885229e-09	1.189135e+01	1.883683e+02
1.170000e-06	1.760491e-06	3.054828e-09	1.219036e+01	1.994850e+02
1.180000e-06	1.802701e-06	3.213834e-09	1.248264e+01	2.099394e+02
1.190000e-06	1.844062e-06	3.361188e-09	1.276904e+01	2.197263e+02
1.200000e-06	1.884849e-06	3.500004e-09	1.305147e+01	2.288481e+02
1.210000e-06	1.925170e-06	3.628876e-09	1.333067e+01	2.373128e+02
1.220000e-06	1.964843e-06	3.744952e-09	1.360538e+01	2.451356e+02
1.230000e-06	2.003848e-06	3.850976e-09	1.387547e+01	2.523423e+02
1.240000e-06	2.042172e-06	3.948902e-09	1.414084e+01	2.589722e+02
1.250000e-06	2.079710e-06	4.040724e-09	1.440077e+01	2.650776e+02
1.260000e-06	2.116632e-06	4.127011e-09	1.465643e+01	2.707202e+02
1.270000e-06	2.153105e-06	4.208229e-09	1.490899e+01	2.759634e+02
1.280000e-06	2.188831e-06	4.283518e-09	1.515637e+01	2.808648e+02
1.290000e-06	2.223483e-06	4.353507e-09	1.539631e+01	2.854686e+02
1.300000e-06	2.257079e-06	4.418177e-09	1.562894e+01	2.898033e+02
1.310000e-06	2.289909e-06	4.476955e-09	1.585627e+01	2.938824e+02
1.320000e-06	2.322086e-06	4.531578e-09	1.607908e+01	2.977093e+02
1.330000e-06	2.353508e-06	4.583945e-09	1.629666e+01	3.012844e+02
1.340000e-06	2.384122e-06	4.633620e-09	1.650864e+01	3.046106e+02
1.350000e-06	2.413893e-06	4.679682e-09	1.671479e+01	3.076971e+02
1.360000e-06	2.442916e-06	4.722482e-09	1.691576e+01	3.105595e+02
1.370000e-06	2.471325e-06	4.761765e-09	1.711247e+01	3.132178e+02
1.380000e-06	2.498862e-06	4.798382e-09	1.730315e+01	3.156928e+02
1.390000e-06	2.525143e-06	4.832232e-09	1.748513e+01	3.180034e+02
1.400000e-06	2.550315e-06	4.864197e-09	1.765943e+01	3.201645e+02
1.410000e-06	2.574649e-06	4.894903e-09	1.782793e+01	3.221878e+02
1.420000e-06	2.598140e-06	4.924052e-09	1.799059e+01	3.240831e+02
1.430000e-06	2.620702e-06	4.950928e-09	1.814682e+01	3.258596e+02
1.440000e-06	2.642350e-06	4.974432e-09	1.829672e+01	3.275266e+02
1.450000e-06	2.663262e-06	4.995051e-09	1.844152e+01	3.290926e+02
1.460000e-06	2.683450e-06	5.014032e-09	1.858132e+01	3.305645e+02
1.470000e-06	2.702650e-06	5.033698e-09	1.871426e+01	3.319459e+02
1.480000e-06	2.720863e-06	5.055364e-09	1.884038e+01	3.332372e+02
1.490000e-06	2.738148e-06	5.075157e-09	1.896007e+01	3.344368e+02
1.500000e-06	2.754386e-06	5.091088e-09	1.907250e+01	3.355435e+02
1.510000e-06	2.769528e-06	5.106079e-09	1.917735e+01	3.365591e+02
1.520000e-06	2.783631e-06	5.120262e-09	1.927500e+01	3.374892e+02
1.530000e-06	2.796769e-06	5.132090e-09	1.936598e+01	3.383429e+02
1.540000e-06	2.808736e-06	5.141604e-09	1.944885e+01	3.391306e+02
1.550000e-06	2.819357e-06	5.149804e-09	1.952239e+01	3.398603e+02
1.560000e-06	2.828820e-06	5.159244e-09	1.958791e+01	3.405353e+02
1.570000e-06	2.837377e-06	5.171148e-09	1.964717e+01	3.411535e+02
1.580000e-06	2.845037e-06	5.183478e-09	1.970021e+01	3.417087e+02
1.590000e-06	2.851705e-06	5.194468e-09	1.974638e+01	3.421940e+02
1.600000e-06	2.857407e-06	5.201992e-09	1.978587e+01	3.426059e+02
1.610000e-06	2.862271e-06	5.205715e-09	1.981954e+01	3.429468e+02
1.620000e-06	2.866144e-06	5.207944e-09	1.984636e+01	3.432246e+02
1.630000e-06	2.868762e-06	5.211433e-09	1.986449e+01	3.434507e+02
1.640000e-06	2.870229e-06	5.216139e-09	1.987465e+01	3.436349e+02
1.650000e-06	2.870785e-06	5.220879e-09	1.987850e+01	3.437812e+02
1.660000e-06	2.870495e-06	5.223428e-09	1.987649e+01	3.438855e+02
1.670000e-06	2.869295e-06	5.223276e-09	1.986818e+01	3.439362e+02
1.680000e-06	2.867177e-06	5.223619e-09	1.985351e+01	3.439182e+02
1.690000e-06	2.864280e-06	5.222347e-09	1.983345e+01	3.438186e+02
1.700000e-06	2.860539e-06	5.218043e-09	1.980755e+01	3.436319e+02
1.710000e-06	2.855680e-06	5.213696e-09	1.977391e+01	3.433620e+02
1.720000e-06	2.849699e-06	5.209617e-09	1.973249e+01	3.430218e+02
1.730000e-06	2.842809e-06	5.192881e-09	1.968478e+01	3.426277e+02
1.740000e-06	2.835009e-06	5.174836e-09	1.963077e+01	3.421944e+02
1.750000e-06	2.825855e-06	5.188312e-09	1.956739e+01	3.417292e+02
1.760000e-06	2.815111e-06	5.222087e-09	1.949299e+01	3.412304e+02
1.770000e-06	2.803523e-06	5.168987e-09	1.941275e+01	3.406890e+02
1.780000e-06	2.791798e-06	5.145435e-09	1.933156e+01	3.400937e+02
1.790000e-06	2.779205e-06	5.170768e-09	1.924436e+01	3.394368e+02
1.800000e-06	2.764908e-06	5.162962e-09	1.914536e+01	3.387187e+02
1.810000e-06	2.749534e-06	5.089784e-09	1.903890e+01	3.379484e+02
1.820000e-06	2.733610e-06	5.106431e-09	1.892864e+01	3.371403e+02
1.830000e-06	2.716530e-06	5.194989e-09	1.881037e+01	3.363078e+02
1.840000e-06	2.698197e-06	5.110631e-09	1.868342e+01	3.354569e+02
1.850000e-06	2.679208e-06	5.074003e-09	1.855194e+01	3.345824e+02
1.860000e-06	2.659373e-06	5.150578e-09	1.841460e+01	3.336681e+02
1.870000e-06	2.638258e-06	5.073602e-09	1.826838e+01	3.326917e+02
1.880000e-06	2.616099e-06	5.002456e-09	1.811494e+01	3.316323e+02
1.890000e-06	2.593013e-06	5.069500e-09	1.795509e+01	3.304778e+02
1.900000e-06	2.568917e-06	5.040982e-09	1.778824e+01	3.292286e+02
1.910000e-06	2.544093e-06	5.008510e-09	1.761635e+01	3.278969e+02
1.920000e-06	2.518538e-06	5.022624e-09	1.743939e+01	3.265014e+02
1.930000e-06	2.492116e-06	4.960839e-09	1.725644e+01	3.250590e+02
1.940000e-06	2.465017e-06	4.918886e-09	1.706879e+01	3.235784e+02
1.950000e-06	2.436915e-06	4.953554e-09	1.687420e+01	3.220556e+02
1.960000e-06	2.407510e-06	4.870095e-09	1.667059e+01	3.204767e+02
1.970000e-06	2.377119e-06	4.848425e-09	1.646015e+01	3.188232e+02
1.980000e-06	2.345941e-06	4.907434e-09	1.624426e+01	3.170803e+02
1.990000e-06	2.314079e-06	4.811538e-09	1.602364e+01	3.152437e+02
2.000000e-06	2.281521e-06	4.782694e-09	1.579819e+01	3.133222e+02
2.010000e-06	2.248093e-06	4.802588e-09	1.556672e+01	3.113343e+02
2.020000e-06	2.213926e-06	4.694862e-09	1.533014e+01	3.093017e+02
2.030000e-06	2.179172e-06	4.680441e-09	1.508949e+01	3.072409e+02
2.040000e-06	2.143716e-06	4.700617e-09	1.484397e+01	3.051567e+02
2.050000e-06	2.107504e-06	4.602069e-09	1.459323e+01	3.030412e+02
2.060000e-06	2.070328e-06	4.587230e-09	1.433580e+01	3.008772e+02
2.070000e-06	2.032116e-06	4.592975e-09	1.407121e+01	2.986464e+02
2.080000e-06	1.993161e-06	4.528230e-09	1.380147e+01	2.963374e+02
2.090000e-06	1.953608e-06	4.497438e-09	1.352758e+01	2.939506e+02
2.100000e-06	1.913445e-06	4.455804e-09	1.324948e+01	2.914991e+02
2.110000e-06	1.872632e-06	4.404675e-09	1.296688e+01	2.890023e+02
2.120000e-06	1.831203e-06	4.371423e-09	1.268001e+01	2.864782e+02
2.130000e-06	1.789202e-06	4.330428e-09	1.238917e+01	2.839344e+02
2.140000e-06	1.746666e-06	4.303965e-09	1.209463e+01	2.813643e+02
2.150000e-06	1.703675e-06	4.265398e-09	1.179695e+01	2.787483e+02
2.160000e-06	1.660220e-06	4.209800e-09	1.149604e+01	2.760609e+02
2.170000e-06	1.616145e-06	4.169321e-09	1.119085e+01	2.732808e+02
2.180000e-06	1.571446e-06	4.125621e-09	1.088134e+01	2.703993e+02
2.190000e-06	1.526158e-06	4.077408e-09	1.056775e+01	2.674242e+02
2.200000e-06	1.480363e-06	4.039099e-09	1.025065e+01	2.643772e+02
2.210000e-06	1.434146e-06	3.999042e-09	9.930615e+00	2.612852e+02
2.220000e-06	1.387381e-06	3.951499e-09	9.606798e+00	2.581692e+02
2.230000e-06	1.340057e-06	3.887607e-09	9.279105e+00	2.550355e+02
2.240000e-06	1.292145e-06	3.840865e-09	8.947342e+00	2.518719e+02
2.250000e-06	1.243683e-06	3.796391e-09	8.611776e+00	2.486510e+02
2.260000e-06	1.194837e-06	3.742029e-09	8.273541e+00	2.453399e+02
2.270000e-06	1.145545e-06	3.702724e-09	7.932222e+00	2.419122e+02
2.280000e-06	1.095773e-06	3.650208e-09	7.587584e+00	2.383575e+02
2.290000e-06	1.045583e-06	3.590418e-09	7.240049e+00	2.346853e+02
2.300000e-06	9.949602e-07	3.528603e-09	6.889514e+00	2.309214e+02
2.310000e-06	9.440137e-07	3.461105e-09	6.536739e+00	2.270982e+02
2.320000e-06	8.928171e-07	3.399972e-09	6.182233e+00	2.232428e+02
2.330000e-06	8.413508e-07	3.345442e-09	5.825860e+00	2.193669e+02
2.340000e-06	7.894608e-07	3.292876e-09	5.466552e+00	2.154632e+02
2.350000e-06	7.370440e-07	3.237953e-09	5.103596e+00	2.115080e+02
2.360000e-06	6.841784e-07	3.174749e-09	4.737533e+00	2.074709e+02
2.370000e-06	6.308571e-07	3.112290e-09	4.368314e+00	2.033253e+02
2.380000e-06	5.771268e-07	3.049557e-09	3.996263e+00	1.990571e+02
2.390000e-06	5.230490e-07	2.980580e-09	3.621807e+00	1.946683e+02
2.400000e-06	4.687077e-07	2.911035e-09	3.245525e+00	1.901733e+02
2.410000e-06	4.141835e-07	2.844344e-09	2.867977e+00	1.855904e+02
2.420000e-06	3.595317e-07	2.784531e-09	2.489546e+00	1.809321e+02
2.430000e-06	3.047652e-07	2.714284e-09	2.110320e+00	1.761977e+02
2.440000e-06	2.499004e-07	2.632460e-09	1.730413e+00	1.713712e+02
2.450000e-06	1.950135e-07	2.554478e-09	1.350354e+00	1.664256e+02
2.460000e-06	1.401238e-07	2.479467e-09	9.702749e-01	1.613314e+02
2.470000e-06	8.521976e-08	2.402881e-09	5.900967e-01	1.560652e+02
2.480000e-06	3.027989e-08	2.319225e-09	2.096704e-01	1.506165e+02
2.490000e-06	-2.469192e-08	2.233392e-09	-1.709770e-01	1.449888e+02
2.500000e-06	-7.966465e-08	2.148289e-09	-5.516308e-01	1.391949e+02
2.510000e-06	-1.346191e-07	2.060774e-09	-9.321578e-01	1.332490e+02
2.520000e-06	-1.895242e-07	1.966785e-09	-1.312344e+00	1.271584e+02
2.530000e-06	-2.443992e-07	1.866892e-09	-1.692321e+00	1.209181e+02
2.540000e-06	-2.992624e-07	1.767010e-09	-2.072216e+00	1.145102e+02
2.550000e-06	-3.540265e-07	1.671859e-09	-2.451425e+00	1.079078e+02
2.560000e-06	-4.086549e-07	1.573654e-09	-2.829695e+00	1.010820e+02
2.570000e-06	-4.631326e-07	1.463821e-09	-3.206921e+00	9.400829e+01
2.580000e-06	-5.173605e-07	1.347295e-09	-3.582417e+00	8.667066e+01
2.590000e-06	-5.713343e-07	1.230795e-09	-3.956154e+00	7.906072e+01
2.600000e-06	-6.249955e-07	1.114578e-09	-4.327726e+00	7.117365e+01
2.610000e-06	-6.781945e-07	9.898471e-10	-4.696098e+00	6.300226e+01
2.620000e-06	-7.309078e-07	8.577154e-10	-5.061107e+00	5.453186e+01
2.630000e-06	-7.831930e-07	7.232675e-10	-5.423151e+00	4.573817e+01
2.640000e-06	-8.350454e-07	5.882519e-10	-5.782198e+00	3.658883e+01
2.650000e-06	-8.865211e-07	4.478882e-10	-6.138637e+00	2.704805e+01
2.660000e-06	-9.377254e-07	2.963794e-10	-6.493197e+00	1.708216e+01
2.670000e-06	-9.886563e-07	1.364406e-10	-6.845863e+00	6.664388e+00
2.680000e-06	-1.039302e-06	-2.921571e-11	-7.196552e+00	-4.222613e+00
2.690000e-06	-1.089495e-06	-2.002194e-10	-7.544109e+00	-1.558635e+01
2.700000e-06	-1.139174e-06	-3.804648e-10	-7.888107e+00	-2.742499e+01
2.710000e-06	-1.188453e-06	-5.696403e-10	-8.229341e+00	-3.972707e+01
2.720000e-06	-1.237361e-06	-7.634770e-10	-8.567998e+00	-5.246903e+01
2.730000e-06	-1.285772e-06	-9.613251e-10	-8.903212e+00	-6.561056e+01
2.740000e-06	-1.333294e-06	-1.165518e-09	-9.232280e+00	-7.908911e+01
2.750000e-06	-1.379892e-06	-1.378728e-09	-9.554940e+00	-9.281582e+01
2.760000e-06	-1.425998e-06	-1.597043e-09	-9.874200e+00	-1.066755e+02
2.770000e-06	-1.471702e-06	-1.813215e-09	-1.019067e+01	-1.205318e+02
2.780000e-06	-1.517018e-06	-2.024929e-09	-1.050446e+01	-1.342380e+02
2.790000e-06	-1.562010e-06	-2.232435e-09	-1.081600e+01	-1.476501e+02
2.800000e-06	-1.606563e-06	-2.431457e-09	-1.112450e+01	-1.606405e+02
2.810000e-06	-1.650532e-06	-2.619482e-09	-1.142896e+01	-1.731074e+02
2.820000e-06	-1.693934e-06	-2.798796e-09	-1.172949e+01	-1.849791e+02
2.830000e-06	-1.736941e-06	-2.971321e-09	-1.202729e+01	-1.962123e+02
2.840000e-06	-1.779548e-06	-3.136076e-09	-1.232232e+01	-2.067853e+02
2.850000e-06	-1.821557e-06	-3.291123e-09	-1.261321e+01	-2.166911e+02
2.860000e-06	-1.862944e-06	-3.434530e-09	-1.289979e+01	-2.259310e+02
2.870000e-06	-1.903734e-06	-3.565001e-09	-1.318224e+01	-2.345118e+02
2.880000e-06	-1.943799e-06	-3.685298e-09	-1.345966e+01	-2.424473e+02
2.890000e-06	-1.983230e-06	-3.798134e-09	-1.373270e+01	-2.497613e+02
2.900000e-06	-2.022171e-06	-3.903658e-09	-1.400235e+01	-2.564904e+02
2.910000e-06	-2.060444e-06	-3.999902e-09	-1.426736e+01	-2.626848e+02
2.920000e-06	-2.097708e-06	-4.088362e-09	-1.452539e+01	-2.684050e+02
2.930000e-06	-2.133898e-06	-4.171490e-09	-1.477599e+01	-2.737148e+02
2.940000e-06	-2.169289e-06	-4.250246e-09	-1.502105e+01	-2.786731e+02
