# Temperatura_=_17.6
# Concentracion g/m^3_=_13400.0
# C_Vs_to_Am_M_A/Vsm_=_65563218390.804596
# pendiente_HvsI_1/m_=_3716.3
# ordenada_HvsI_A/m_=_1297.0
# frecuencia_Hz_=_300845.0218633167

Tiempo_(s)	Campo_(V.s)	Magnetizacion_(V.s)	Campo_(kA/m)	Magnetizacion_(A/m)
0.000000e+00	-2.858351e-06	-5.005533e-09	-1.980208e+01	-3.283578e+02
1.000000e-08	-2.857958e-06	-5.004571e-09	-1.979936e+01	-3.283690e+02
2.000000e-08	-2.856850e-06	-5.002224e-09	-1.979168e+01	-3.283318e+02
3.000000e-08	-2.854621e-06	-4.997519e-09	-1.977624e+01	-3.282499e+02
4.000000e-08	-2.851079e-06	-4.994815e-09	-1.975170e+01	-3.281205e+02
5.000000e-08	-2.846631e-06	-4.994341e-09	-1.972088e+01	-3.279352e+02
6.000000e-08	-2.841468e-06	-4.990858e-09	-1.968512e+01	-3.276827e+02
7.000000e-08	-2.835329e-06	-4.974617e-09	-1.964259e+01	-3.273538e+02
8.000000e-08	-2.828169e-06	-4.956422e-09	-1.959298e+01	-3.269450e+02
9.000000e-08	-2.820040e-06	-5.007590e-09	-1.953667e+01	-3.264618e+02
1.000000e-07	-2.810653e-06	-5.047385e-09	-1.947164e+01	-3.259177e+02
1.100000e-07	-2.799694e-06	-4.971818e-09	-1.939572e+01	-3.253317e+02
1.200000e-07	-2.787629e-06	-4.816963e-09	-1.931213e+01	-3.247229e+02
1.300000e-07	-2.774993e-06	-4.913902e-09	-1.922459e+01	-3.241060e+02
1.400000e-07	-2.761413e-06	-5.080880e-09	-1.913051e+01	-3.234869e+02
1.500000e-07	-2.746710e-06	-4.869655e-09	-1.902866e+01	-3.228615e+02
1.600000e-07	-2.730973e-06	-4.814606e-09	-1.891963e+01	-3.222173e+02
1.700000e-07	-2.713800e-06	-5.025060e-09	-1.880066e+01	-3.215366e+02
1.800000e-07	-2.695441e-06	-4.984288e-09	-1.867347e+01	-3.208007e+02
1.900000e-07	-2.676588e-06	-4.775020e-09	-1.854286e+01	-3.199935e+02
2.000000e-07	-2.657071e-06	-4.900966e-09	-1.840765e+01	-3.191042e+02
2.100000e-07	-2.636551e-06	-4.955789e-09	-1.826550e+01	-3.181279e+02
2.200000e-07	-2.615189e-06	-4.719187e-09	-1.811750e+01	-3.170648e+02
2.300000e-07	-2.593077e-06	-4.831332e-09	-1.796431e+01	-3.159187e+02
2.400000e-07	-2.569962e-06	-4.962942e-09	-1.780418e+01	-3.146956e+02
2.500000e-07	-2.545899e-06	-4.750640e-09	-1.763748e+01	-3.134020e+02
2.600000e-07	-2.521139e-06	-4.721950e-09	-1.746594e+01	-3.120440e+02
2.700000e-07	-2.495448e-06	-4.802997e-09	-1.728796e+01	-3.106266e+02
2.800000e-07	-2.468546e-06	-4.707803e-09	-1.710159e+01	-3.091530e+02
2.900000e-07	-2.440603e-06	-4.695502e-09	-1.690801e+01	-3.076237e+02
3.000000e-07	-2.411853e-06	-4.671314e-09	-1.670883e+01	-3.060369e+02
3.100000e-07	-2.382339e-06	-4.659374e-09	-1.650437e+01	-3.043883e+02
3.200000e-07	-2.352093e-06	-4.684137e-09	-1.629482e+01	-3.026725e+02
3.300000e-07	-2.321074e-06	-4.615140e-09	-1.607993e+01	-3.008848e+02
3.400000e-07	-2.289212e-06	-4.547835e-09	-1.585920e+01	-2.990232e+02
3.500000e-07	-2.256697e-06	-4.578561e-09	-1.563394e+01	-2.970897e+02
3.600000e-07	-2.223665e-06	-4.514832e-09	-1.540510e+01	-2.950902e+02
3.700000e-07	-2.189751e-06	-4.470556e-09	-1.517016e+01	-2.930336e+02
3.800000e-07	-2.154521e-06	-4.526309e-09	-1.492609e+01	-2.909287e+02
3.900000e-07	-2.118292e-06	-4.425435e-09	-1.467510e+01	-2.887813e+02
4.000000e-07	-2.081613e-06	-4.383394e-09	-1.442100e+01	-2.865922e+02
4.100000e-07	-2.044304e-06	-4.413461e-09	-1.416252e+01	-2.843566e+02
4.200000e-07	-2.006179e-06	-4.337826e-09	-1.389840e+01	-2.820658e+02
4.300000e-07	-1.967325e-06	-4.258015e-09	-1.362923e+01	-2.797108e+02
4.400000e-07	-1.927730e-06	-4.274716e-09	-1.335492e+01	-2.772854e+02
4.500000e-07	-1.887507e-06	-4.241619e-09	-1.307627e+01	-2.747895e+02
4.600000e-07	-1.846952e-06	-4.189113e-09	-1.279531e+01	-2.722293e+02
4.700000e-07	-1.806027e-06	-4.154520e-09	-1.251179e+01	-2.696153e+02
4.800000e-07	-1.764296e-06	-4.099731e-09	-1.222269e+01	-2.669579e+02
4.900000e-07	-1.721371e-06	-4.058338e-09	-1.192531e+01	-2.642640e+02
5.000000e-07	-1.677458e-06	-4.014987e-09	-1.162109e+01	-2.615330e+02
5.100000e-07	-1.633066e-06	-3.979505e-09	-1.131356e+01	-2.587570e+02
5.200000e-07	-1.588324e-06	-3.927921e-09	-1.100359e+01	-2.559231e+02
5.300000e-07	-1.543148e-06	-3.898165e-09	-1.069062e+01	-2.530184e+02
5.400000e-07	-1.497403e-06	-3.857097e-09	-1.037371e+01	-2.500344e+02
5.500000e-07	-1.451064e-06	-3.804958e-09	-1.005268e+01	-2.469706e+02
5.600000e-07	-1.404170e-06	-3.741865e-09	-9.727805e+00	-2.438345e+02
5.700000e-07	-1.356716e-06	-3.687282e-09	-9.399058e+00	-2.406381e+02
5.800000e-07	-1.308784e-06	-3.654015e-09	-9.066988e+00	-2.373928e+02
5.900000e-07	-1.260492e-06	-3.606536e-09	-8.732431e+00	-2.341039e+02
6.000000e-07	-1.211904e-06	-3.554430e-09	-8.395827e+00	-2.307669e+02
6.100000e-07	-1.162820e-06	-3.499967e-09	-8.055784e+00	-2.273684e+02
6.200000e-07	-1.113086e-06	-3.451566e-09	-7.711237e+00	-2.238902e+02
6.300000e-07	-1.062683e-06	-3.388100e-09	-7.362052e+00	-2.203152e+02
6.400000e-07	-1.011599e-06	-3.327374e-09	-7.008154e+00	-2.166349e+02
6.500000e-07	-9.600111e-07	-3.265741e-09	-6.650764e+00	-2.128523e+02
6.600000e-07	-9.080186e-07	-3.209680e-09	-6.290570e+00	-2.089823e+02
6.700000e-07	-8.557320e-07	-3.159270e-09	-5.928339e+00	-2.050468e+02
6.800000e-07	-8.032576e-07	-3.096737e-09	-5.564807e+00	-2.010673e+02
6.900000e-07	-7.505663e-07	-3.031867e-09	-5.199772e+00	-1.970571e+02
7.000000e-07	-6.975235e-07	-2.966143e-09	-4.832302e+00	-1.930165e+02
7.100000e-07	-6.441770e-07	-2.907819e-09	-4.462729e+00	-1.889318e+02
7.200000e-07	-5.906181e-07	-2.840627e-09	-4.091683e+00	-1.847797e+02
7.300000e-07	-5.368443e-07	-2.771207e-09	-3.719149e+00	-1.805346e+02
7.400000e-07	-4.828813e-07	-2.702122e-09	-3.345304e+00	-1.761757e+02
7.500000e-07	-4.287114e-07	-2.636048e-09	-2.970026e+00	-1.716933e+02
7.600000e-07	-3.744401e-07	-2.566574e-09	-2.594045e+00	-1.670891e+02
7.700000e-07	-3.201143e-07	-2.488516e-09	-2.217688e+00	-1.623737e+02
7.800000e-07	-2.657152e-07	-2.410548e-09	-1.840821e+00	-1.575601e+02
7.900000e-07	-2.112399e-07	-2.335784e-09	-1.463428e+00	-1.526569e+02
8.000000e-07	-1.567275e-07	-2.267566e-09	-1.085776e+00	-1.476632e+02
8.100000e-07	-1.021766e-07	-2.187829e-09	-7.078589e-01	-1.425686e+02
8.200000e-07	-4.757231e-08	-2.106088e-09	-3.295714e-01	-1.373555e+02
8.300000e-07	7.047923e-09	-2.023828e-09	4.882659e-02	-1.320054e+02
8.400000e-07	6.165452e-08	-1.940119e-09	4.271301e-01	-1.265052e+02
8.500000e-07	1.162298e-07	-1.850531e-09	8.052167e-01	-1.208502e+02
8.600000e-07	1.707772e-07	-1.757383e-09	1.183110e+00	-1.150450e+02
8.700000e-07	2.252609e-07	-1.668852e-09	1.560562e+00	-1.090989e+02
8.800000e-07	2.796709e-07	-1.581433e-09	1.937504e+00	-1.030203e+02
8.900000e-07	3.340371e-07	-1.492496e-09	2.314142e+00	-9.681011e+01
9.000000e-07	3.883404e-07	-1.389941e-09	2.690344e+00	-9.045809e+01
9.100000e-07	4.425169e-07	-1.285243e-09	3.065668e+00	-8.394286e+01
9.200000e-07	4.964833e-07	-1.181480e-09	3.439536e+00	-7.723562e+01
9.300000e-07	5.502587e-07	-1.076167e-09	3.812081e+00	-7.030618e+01
9.400000e-07	6.038393e-07	-9.637523e-10	4.183277e+00	-6.312906e+01
9.500000e-07	6.571189e-07	-8.487616e-10	4.552388e+00	-5.568743e+01
9.600000e-07	7.100863e-07	-7.327371e-10	4.919335e+00	-4.797351e+01
9.700000e-07	7.628098e-07	-6.116277e-10	5.284593e+00	-3.998563e+01
9.800000e-07	8.153180e-07	-4.854656e-10	5.648358e+00	-3.172320e+01
9.900000e-07	8.675897e-07	-3.514226e-10	6.010486e+00	-2.318157e+01
1.000000e-06	9.196058e-07	-2.149936e-10	6.370844e+00	-1.434904e+01
1.010000e-06	9.712249e-07	-7.218914e-11	6.728451e+00	-5.206886e+00
1.020000e-06	1.022270e-06	7.357527e-11	7.082077e+00	4.267281e+00
1.030000e-06	1.072734e-06	2.238132e-10	7.431682e+00	1.409410e+01
1.040000e-06	1.122528e-06	3.790693e-10	7.776649e+00	2.428655e+01
1.050000e-06	1.171648e-06	5.411599e-10	8.116940e+00	3.484527e+01
1.060000e-06	1.220365e-06	7.092514e-10	8.454443e+00	4.575603e+01
1.070000e-06	1.268803e-06	8.807624e-10	8.790013e+00	5.698964e+01
1.080000e-06	1.316963e-06	1.057025e-09	9.123656e+00	6.850347e+01
1.090000e-06	1.364709e-06	1.235796e-09	9.454431e+00	8.024370e+01
1.100000e-06	1.411930e-06	1.419789e-09	9.781569e+00	9.214735e+01
1.110000e-06	1.458624e-06	1.604037e-09	1.010505e+01	1.041437e+02
1.120000e-06	1.504776e-06	1.788228e-09	1.042479e+01	1.161554e+02
1.130000e-06	1.550366e-06	1.968112e-09	1.074062e+01	1.280996e+02
1.140000e-06	1.595373e-06	2.145656e-09	1.105242e+01	1.398900e+02
1.150000e-06	1.639996e-06	2.322043e-09	1.136156e+01	1.514403e+02
1.160000e-06	1.684333e-06	2.494396e-09	1.166872e+01	1.626683e+02
1.170000e-06	1.728160e-06	2.663299e-09	1.197235e+01	1.735001e+02
1.180000e-06	1.771122e-06	2.821985e-09	1.226998e+01	1.838745e+02
1.190000e-06	1.813022e-06	2.969883e-09	1.256025e+01	1.937449e+02
1.200000e-06	1.854078e-06	3.109008e-09	1.284468e+01	2.030803e+02
1.210000e-06	1.894641e-06	3.244433e-09	1.312569e+01	2.118649e+02
1.220000e-06	1.934769e-06	3.371390e-09	1.340369e+01	2.200965e+02
1.230000e-06	1.974243e-06	3.486132e-09	1.367716e+01	2.277848e+02
1.240000e-06	2.012992e-06	3.592601e-09	1.394561e+01	2.349504e+02
1.250000e-06	2.051100e-06	3.693451e-09	1.420961e+01	2.416225e+02
1.260000e-06	2.088468e-06	3.787142e-09	1.446848e+01	2.478381e+02
1.270000e-06	2.125189e-06	3.873813e-09	1.472288e+01	2.536386e+02
1.280000e-06	2.161478e-06	3.956009e-09	1.497428e+01	2.590670e+02
1.290000e-06	2.197050e-06	4.032498e-09	1.522072e+01	2.641634e+02
1.300000e-06	2.231457e-06	4.104514e-09	1.545909e+01	2.689610e+02
1.310000e-06	2.264735e-06	4.172662e-09	1.568962e+01	2.734836e+02
1.320000e-06	2.297292e-06	4.238682e-09	1.591517e+01	2.777450e+02
1.330000e-06	2.329260e-06	4.299435e-09	1.613664e+01	2.817511e+02
1.340000e-06	2.360460e-06	4.354390e-09	1.635279e+01	2.855031e+02
1.350000e-06	2.390834e-06	4.405613e-09	1.656321e+01	2.890028e+02
1.360000e-06	2.420356e-06	4.454382e-09	1.676774e+01	2.922562e+02
1.370000e-06	2.449157e-06	4.500434e-09	1.696727e+01	2.952754e+02
1.380000e-06	2.477340e-06	4.540895e-09	1.716251e+01	2.980785e+02
1.390000e-06	2.504546e-06	4.578224e-09	1.735099e+01	3.006863e+02
1.400000e-06	2.530475e-06	4.614203e-09	1.753062e+01	3.031195e+02
1.410000e-06	2.555355e-06	4.649032e-09	1.770299e+01	3.053948e+02
1.420000e-06	2.579433e-06	4.682379e-09	1.786979e+01	3.075238e+02
1.430000e-06	2.602671e-06	4.714063e-09	1.803078e+01	3.095134e+02
1.440000e-06	2.624969e-06	4.742859e-09	1.818525e+01	3.113682e+02
1.450000e-06	2.646334e-06	4.766290e-09	1.833327e+01	3.130931e+02
1.460000e-06	2.666996e-06	4.784034e-09	1.847641e+01	3.146960e+02
1.470000e-06	2.686983e-06	4.802210e-09	1.861488e+01	3.161875e+02
1.480000e-06	2.706034e-06	4.825556e-09	1.874686e+01	3.175802e+02
1.490000e-06	2.724062e-06	4.849198e-09	1.887175e+01	3.188858e+02
1.500000e-06	2.741177e-06	4.868934e-09	1.899032e+01	3.201119e+02
1.510000e-06	2.757187e-06	4.885998e-09	1.910124e+01	3.212611e+02
1.520000e-06	2.772019e-06	4.903685e-09	1.920399e+01	3.223310e+02
1.530000e-06	2.785826e-06	4.919263e-09	1.929964e+01	3.233163e+02
1.540000e-06	2.798660e-06	4.928834e-09	1.938855e+01	3.242126e+02
1.550000e-06	2.810452e-06	4.935007e-09	1.947025e+01	3.250191e+02
1.560000e-06	2.820869e-06	4.943354e-09	1.954241e+01	3.257402e+02
1.570000e-06	2.829991e-06	4.955682e-09	1.960561e+01	3.263847e+02
1.580000e-06	2.838242e-06	4.969521e-09	1.966277e+01	3.269632e+02
1.590000e-06	2.845588e-06	4.980850e-09	1.971366e+01	3.274847e+02
1.600000e-06	2.851959e-06	4.987804e-09	1.975780e+01	3.279537e+02
1.610000e-06	2.857376e-06	4.991714e-09	1.979532e+01	3.283692e+02
1.620000e-06	2.861979e-06	4.995114e-09	1.982721e+01	3.287256e+02
1.630000e-06	2.865701e-06	4.998214e-09	1.985300e+01	3.290157e+02
1.640000e-06	2.868063e-06	4.999015e-09	1.986936e+01	3.292347e+02
1.650000e-06	2.869162e-06	5.000625e-09	1.987698e+01	3.293822e+02
1.660000e-06	2.869382e-06	5.006454e-09	1.987850e+01	3.294631e+02
1.670000e-06	2.868751e-06	5.011960e-09	1.987413e+01	3.294858e+02
1.680000e-06	2.867238e-06	5.008641e-09	1.986365e+01	3.294587e+02
1.690000e-06	2.864846e-06	5.005618e-09	1.984708e+01	3.293866e+02
1.700000e-06	2.861673e-06	5.005905e-09	1.982509e+01	3.292681e+02
1.710000e-06	2.857759e-06	5.003486e-09	1.979798e+01	3.290958e+02
1.720000e-06	2.852723e-06	5.000414e-09	1.976309e+01	3.288588e+02
1.730000e-06	2.846423e-06	5.009592e-09	1.971945e+01	3.285470e+02
1.740000e-06	2.839227e-06	5.008296e-09	1.966960e+01	3.281554e+02
1.750000e-06	2.831135e-06	4.918632e-09	1.961353e+01	3.276874e+02
1.760000e-06	2.821544e-06	4.884331e-09	1.954709e+01	3.271550e+02
1.770000e-06	2.810263e-06	5.025796e-09	1.946894e+01	3.265764e+02
1.780000e-06	2.798353e-06	5.052336e-09	1.938643e+01	3.259713e+02
1.790000e-06	2.786613e-06	4.915837e-09	1.930509e+01	3.253555e+02
1.800000e-06	2.773843e-06	4.802579e-09	1.921662e+01	3.247369e+02
1.810000e-06	2.759097e-06	5.013446e-09	1.911447e+01	3.241138e+02
1.820000e-06	2.743406e-06	4.961071e-09	1.900577e+01	3.234752e+02
1.830000e-06	2.727344e-06	4.745190e-09	1.889449e+01	3.228042e+02
1.840000e-06	2.709913e-06	4.971289e-09	1.877373e+01	3.220817e+02
1.850000e-06	2.691125e-06	5.043236e-09	1.864357e+01	3.212911e+02
1.860000e-06	2.671902e-06	4.787208e-09	1.851040e+01	3.204202e+02
1.870000e-06	2.651843e-06	4.845649e-09	1.837143e+01	3.194629e+02
1.880000e-06	2.630368e-06	5.022450e-09	1.822266e+01	3.184183e+02
1.890000e-06	2.607959e-06	4.780491e-09	1.806741e+01	3.172897e+02
1.900000e-06	2.584654e-06	4.707146e-09	1.790596e+01	3.160827e+02
1.910000e-06	2.560254e-06	4.903778e-09	1.773692e+01	3.148038e+02
1.920000e-06	2.535277e-06	4.818055e-09	1.756389e+01	3.134593e+02
1.930000e-06	2.509508e-06	4.717358e-09	1.738537e+01	3.120545e+02
1.940000e-06	2.482697e-06	4.798511e-09	1.719963e+01	3.105929e+02
1.950000e-06	2.455362e-06	4.703383e-09	1.701025e+01	3.090758e+02
1.960000e-06	2.427121e-06	4.717118e-09	1.681460e+01	3.075018e+02
1.970000e-06	2.397453e-06	4.680928e-09	1.660907e+01	3.058671e+02
1.980000e-06	2.366783e-06	4.569254e-09	1.639660e+01	3.041663e+02
1.990000e-06	2.335417e-06	4.679157e-09	1.617930e+01	3.023945e+02
2.000000e-06	2.303399e-06	4.633218e-09	1.595749e+01	3.005489e+02
2.010000e-06	2.270703e-06	4.505918e-09	1.573097e+01	2.986305e+02
2.020000e-06	2.237063e-06	4.601554e-09	1.549792e+01	2.966447e+02
2.030000e-06	2.202664e-06	4.505716e-09	1.525961e+01	2.945997e+02
2.040000e-06	2.167786e-06	4.391326e-09	1.501798e+01	2.925047e+02
2.050000e-06	2.132220e-06	4.503812e-09	1.477159e+01	2.903663e+02
2.060000e-06	2.095969e-06	4.393959e-09	1.452045e+01	2.881865e+02
2.070000e-06	2.058737e-06	4.311763e-09	1.426252e+01	2.859616e+02
2.080000e-06	2.020248e-06	4.379729e-09	1.399587e+01	2.836837e+02
2.090000e-06	1.981031e-06	4.297774e-09	1.372418e+01	2.813433e+02
2.100000e-06	1.941336e-06	4.249081e-09	1.344919e+01	2.789334e+02
2.110000e-06	1.901008e-06	4.229251e-09	1.316980e+01	2.764524e+02
2.120000e-06	1.860071e-06	4.152145e-09	1.288620e+01	2.739054e+02
2.130000e-06	1.818494e-06	4.144883e-09	1.259816e+01	2.713021e+02
2.140000e-06	1.776295e-06	4.108637e-09	1.230581e+01	2.686535e+02
2.150000e-06	1.733528e-06	4.054284e-09	1.200953e+01	2.659673e+02
2.160000e-06	1.690294e-06	4.029279e-09	1.171002e+01	2.632449e+02
2.170000e-06	1.646686e-06	3.959880e-09	1.140791e+01	2.604796e+02
2.180000e-06	1.602493e-06	3.926683e-09	1.110175e+01	2.576595e+02
2.190000e-06	1.557574e-06	3.886028e-09	1.079056e+01	2.547710e+02
2.200000e-06	1.512070e-06	3.827619e-09	1.047532e+01	2.518045e+02
2.210000e-06	1.466122e-06	3.801545e-09	1.015700e+01	2.487576e+02
2.220000e-06	1.419831e-06	3.751264e-09	9.836304e+00	2.456363e+02
2.230000e-06	1.373033e-06	3.708730e-09	9.512099e+00	2.424519e+02
2.240000e-06	1.325694e-06	3.643997e-09	9.184138e+00	2.392165e+02
2.250000e-06	1.277736e-06	3.581254e-09	8.851896e+00	2.359371e+02
2.260000e-06	1.229088e-06	3.548457e-09	8.514877e+00	2.326114e+02
2.270000e-06	1.180095e-06	3.494215e-09	8.175461e+00	2.292278e+02
2.280000e-06	1.130768e-06	3.446060e-09	7.833733e+00	2.257684e+02
2.290000e-06	1.081010e-06	3.400896e-09	7.489021e+00	2.222154e+02
2.300000e-06	1.030707e-06	3.340130e-09	7.140529e+00	2.185580e+02
2.310000e-06	9.799401e-07	3.284140e-09	6.788827e+00	2.147966e+02
2.320000e-06	9.289226e-07	3.215436e-09	6.435388e+00	2.109438e+02
2.330000e-06	8.776490e-07	3.147164e-09	6.080175e+00	2.070206e+02
2.340000e-06	8.261045e-07	3.097257e-09	5.723085e+00	2.030492e+02
2.350000e-06	7.742029e-07	3.039344e-09	5.363521e+00	1.990452e+02
2.360000e-06	7.218266e-07	2.984009e-09	5.000669e+00	1.950120e+02
2.370000e-06	6.690190e-07	2.917194e-09	4.634829e+00	1.909386e+02
2.380000e-06	6.157836e-07	2.855366e-09	4.266025e+00	1.868034e+02
2.390000e-06	5.621513e-07	2.800005e-09	3.894471e+00	1.825803e+02
2.400000e-06	5.081794e-07	2.728639e-09	3.520564e+00	1.782473e+02
2.410000e-06	4.538508e-07	2.660311e-09	3.144187e+00	1.737917e+02
2.420000e-06	3.993710e-07	2.593102e-09	2.766762e+00	1.692131e+02
2.430000e-06	3.447872e-07	2.529764e-09	2.388616e+00	1.645206e+02
2.440000e-06	2.900446e-07	2.459382e-09	2.009371e+00	1.597273e+02
2.450000e-06	2.351819e-07	2.376816e-09	1.629293e+00	1.548431e+02
2.460000e-06	1.801898e-07	2.299575e-09	1.248318e+00	1.498696e+02
2.470000e-06	1.251664e-07	2.227871e-09	8.671273e-01	1.447981e+02
2.480000e-06	7.015467e-08	2.152958e-09	4.860174e-01	1.396121e+02
2.490000e-06	1.511415e-08	2.071224e-09	1.047078e-01	1.342930e+02
2.500000e-06	-3.993445e-08	1.983674e-09	-2.766578e-01	1.288258e+02
2.510000e-06	-9.496043e-08	1.897610e-09	-6.578667e-01	1.232040e+02
2.520000e-06	-1.499730e-07	1.813563e-09	-1.038983e+00	1.174304e+02
2.530000e-06	-2.049683e-07	1.722748e-09	-1.419979e+00	1.115139e+02
2.540000e-06	-2.599115e-07	1.628697e-09	-1.800615e+00	1.054634e+02
2.550000e-06	-3.147768e-07	1.533398e-09	-2.180710e+00	9.928206e+01
2.560000e-06	-3.694714e-07	1.444043e-09	-2.559624e+00	9.296205e+01
2.570000e-06	-4.239631e-07	1.351022e-09	-2.937131e+00	8.648422e+01
2.580000e-06	-4.782690e-07	1.245322e-09	-3.313351e+00	7.982088e+01
2.590000e-06	-5.323400e-07	1.137165e-09	-3.687944e+00	7.294161e+01
2.600000e-06	-5.860914e-07	1.029726e-09	-4.060323e+00	6.581948e+01
2.610000e-06	-6.393867e-07	9.209606e-10	-4.429542e+00	5.843564e+01
2.620000e-06	-6.922891e-07	8.028261e-10	-4.796039e+00	5.078051e+01
2.630000e-06	-7.447767e-07	6.806175e-10	-5.159663e+00	4.285151e+01
2.640000e-06	-7.967944e-07	5.590742e-10	-5.520031e+00	3.464826e+01
2.650000e-06	-8.484503e-07	4.365735e-10	-5.877893e+00	2.616735e+01
2.660000e-06	-8.997980e-07	3.040952e-10	-6.233619e+00	1.739870e+01
2.670000e-06	-9.509061e-07	1.603038e-10	-6.587686e+00	8.324893e+00
2.680000e-06	-1.001703e-06	1.481737e-11	-6.939597e+00	-1.076070e+00
2.690000e-06	-1.052045e-06	-1.313659e-10	-7.288359e+00	-1.082571e+01
2.700000e-06	-1.101972e-06	-2.830420e-10	-7.634239e+00	-2.093912e+01
2.710000e-06	-1.151541e-06	-4.435116e-10	-7.977646e+00	-3.141986e+01
2.720000e-06	-1.200707e-06	-6.062131e-10	-8.318255e+00	-4.225698e+01
2.730000e-06	-1.249339e-06	-7.712968e-10	-8.655172e+00	-5.342440e+01
2.740000e-06	-1.297251e-06	-9.430891e-10	-8.987090e+00	-6.488220e+01
2.750000e-06	-1.344340e-06	-1.125291e-09	-9.313316e+00	-7.657876e+01
2.760000e-06	-1.390695e-06	-1.312488e-09	-9.634457e+00	-8.845293e+01
2.770000e-06	-1.436599e-06	-1.497583e-09	-9.952471e+00	-1.004356e+02
2.780000e-06	-1.482201e-06	-1.680228e-09	-1.026839e+01	-1.124506e+02
2.790000e-06	-1.527520e-06	-1.862514e-09	-1.058235e+01	-1.244163e+02
2.800000e-06	-1.572461e-06	-2.042680e-09	-1.089369e+01	-1.362468e+02
2.810000e-06	-1.616803e-06	-2.216067e-09	-1.120089e+01	-1.478555e+02
2.820000e-06	-1.660548e-06	-2.386232e-09	-1.150394e+01	-1.591589e+02
2.830000e-06	-1.703889e-06	-2.553193e-09	-1.180420e+01	-1.700812e+02
2.840000e-06	-1.746871e-06	-2.716800e-09	-1.210197e+01	-1.805579e+02
2.850000e-06	-1.789287e-06	-2.873121e-09	-1.239582e+01	-1.905392e+02
2.860000e-06	-1.831016e-06	-3.019838e-09	-1.268491e+01	-1.999909e+02
2.870000e-06	-1.872226e-06	-3.155873e-09	-1.297040e+01	-2.088940e+02
2.880000e-06	-1.912832e-06	-3.281107e-09	-1.325172e+01	-2.172434e+02
2.890000e-06	-1.952682e-06	-3.399360e-09	-1.352778e+01	-2.250467e+02
2.900000e-06	-1.992013e-06	-3.512658e-09	-1.380027e+01	-2.323219e+02
2.910000e-06	-2.030849e-06	-3.618998e-09	-1.406932e+01	-2.390967e+02
2.920000e-06	-2.068799e-06	-3.717634e-09	-1.433222e+01	-2.454066e+02
2.930000e-06	-2.105610e-06	-3.810006e-09	-1.458724e+01	-2.512922e+02
2.940000e-06	-2.141464e-06	-3.895698e-09	-1.483563e+01	-2.567967e+02
