# Temperatura_=_20.39
# Concentracion g/m^3_=_13400.0
# C_Vs_to_Am_M_A/Vsm_=_65563218390.804596
# pendiente_HvsI_1/m_=_3716.3
# ordenada_HvsI_A/m_=_1297.0
# frecuencia_Hz_=_300842.1177261621

Tiempo_(s)	Campo_(V.s)	Magnetizacion_(V.s)	Campo_(kA/m)	Magnetizacion_(A/m)
0.000000e+00	-2.861462e-06	-5.066996e-09	-1.980357e+01	-3.309005e+02
1.000000e-08	-2.861057e-06	-5.067348e-09	-1.980077e+01	-3.308919e+02
2.000000e-08	-2.859911e-06	-5.063634e-09	-1.979283e+01	-3.308191e+02
3.000000e-08	-2.857601e-06	-5.057932e-09	-1.977685e+01	-3.307041e+02
4.000000e-08	-2.853994e-06	-5.057234e-09	-1.975188e+01	-3.305609e+02
5.000000e-08	-2.849536e-06	-5.059675e-09	-1.972103e+01	-3.303890e+02
6.000000e-08	-2.844320e-06	-5.054918e-09	-1.968493e+01	-3.301740e+02
7.000000e-08	-2.838201e-06	-5.038565e-09	-1.964259e+01	-3.298927e+02
8.000000e-08	-2.831148e-06	-5.027679e-09	-1.959377e+01	-3.295238e+02
9.000000e-08	-2.823076e-06	-5.071798e-09	-1.953790e+01	-3.290576e+02
1.000000e-07	-2.813678e-06	-5.094955e-09	-1.947287e+01	-3.285016e+02
1.100000e-07	-2.802750e-06	-5.018314e-09	-1.939724e+01	-3.278806e+02
1.200000e-07	-2.790796e-06	-4.903174e-09	-1.931451e+01	-3.272292e+02
1.300000e-07	-2.778141e-06	-4.994927e-09	-1.922692e+01	-3.265806e+02
1.400000e-07	-2.764466e-06	-5.113719e-09	-1.913228e+01	-3.259552e+02
1.500000e-07	-2.749821e-06	-4.923999e-09	-1.903093e+01	-3.253527e+02
1.600000e-07	-2.734265e-06	-4.889668e-09	-1.892326e+01	-3.247519e+02
1.700000e-07	-2.717250e-06	-5.057182e-09	-1.880551e+01	-3.241165e+02
1.800000e-07	-2.699000e-06	-4.997750e-09	-1.867920e+01	-3.234066e+02
1.900000e-07	-2.680218e-06	-4.841403e-09	-1.854922e+01	-3.225903e+02
2.000000e-07	-2.660694e-06	-4.950019e-09	-1.841410e+01	-3.216533e+02
2.100000e-07	-2.640138e-06	-4.969345e-09	-1.827184e+01	-3.206013e+02
2.200000e-07	-2.618782e-06	-4.783840e-09	-1.812403e+01	-3.194564e+02
2.300000e-07	-2.596666e-06	-4.888399e-09	-1.797097e+01	-3.182482e+02
2.400000e-07	-2.573528e-06	-4.971434e-09	-1.781084e+01	-3.170029e+02
2.500000e-07	-2.549491e-06	-4.791654e-09	-1.764448e+01	-3.157351e+02
2.600000e-07	-2.524751e-06	-4.778338e-09	-1.747326e+01	-3.144435e+02
2.700000e-07	-2.499102e-06	-4.838433e-09	-1.729575e+01	-3.131131e+02
2.800000e-07	-2.472266e-06	-4.755473e-09	-1.711003e+01	-3.117215e+02
2.900000e-07	-2.444322e-06	-4.746251e-09	-1.691663e+01	-3.102480e+02
3.000000e-07	-2.415492e-06	-4.719928e-09	-1.671710e+01	-3.086805e+02
3.100000e-07	-2.385869e-06	-4.702185e-09	-1.651209e+01	-3.070197e+02
3.200000e-07	-2.355595e-06	-4.717882e-09	-1.630257e+01	-3.052780e+02
3.300000e-07	-2.324595e-06	-4.651217e-09	-1.608802e+01	-3.034748e+02
3.400000e-07	-2.292755e-06	-4.589201e-09	-1.586767e+01	-3.016297e+02
3.500000e-07	-2.260293e-06	-4.607889e-09	-1.564301e+01	-2.997560e+02
3.600000e-07	-2.227259e-06	-4.561291e-09	-1.541439e+01	-2.978571e+02
3.700000e-07	-2.193264e-06	-4.523102e-09	-1.517911e+01	-2.959266e+02
3.800000e-07	-2.158035e-06	-4.552460e-09	-1.493530e+01	-2.939517e+02
3.900000e-07	-2.121880e-06	-4.463756e-09	-1.468508e+01	-2.919184e+02
4.000000e-07	-2.085165e-06	-4.428791e-09	-1.443099e+01	-2.898171e+02
4.100000e-07	-2.047789e-06	-4.448371e-09	-1.417231e+01	-2.876457e+02
4.200000e-07	-2.009654e-06	-4.381458e-09	-1.390839e+01	-2.854103e+02
4.300000e-07	-1.970760e-06	-4.310626e-09	-1.363921e+01	-2.831226e+02
4.400000e-07	-1.931068e-06	-4.312657e-09	-1.336451e+01	-2.807959e+02
4.500000e-07	-1.890811e-06	-4.280281e-09	-1.308590e+01	-2.784401e+02
4.600000e-07	-1.850248e-06	-4.233145e-09	-1.280517e+01	-2.760581e+02
4.700000e-07	-1.809188e-06	-4.200170e-09	-1.252100e+01	-2.736448e+02
4.800000e-07	-1.767066e-06	-4.151346e-09	-1.222949e+01	-2.711883e+02
4.900000e-07	-1.723802e-06	-4.116956e-09	-1.193006e+01	-2.686736e+02
5.000000e-07	-1.679833e-06	-4.077316e-09	-1.162577e+01	-2.660869e+02
5.100000e-07	-1.635428e-06	-4.035996e-09	-1.131845e+01	-2.634201e+02
5.200000e-07	-1.590691e-06	-3.981072e-09	-1.100884e+01	-2.606729e+02
5.300000e-07	-1.545479e-06	-3.950297e-09	-1.069593e+01	-2.578529e+02
5.400000e-07	-1.499639e-06	-3.915498e-09	-1.037868e+01	-2.549725e+02
5.500000e-07	-1.453246e-06	-3.869652e-09	-1.005761e+01	-2.520445e+02
5.600000e-07	-1.406349e-06	-3.811591e-09	-9.733039e+00	-2.490774e+02
5.700000e-07	-1.358869e-06	-3.756707e-09	-9.404442e+00	-2.460713e+02
5.800000e-07	-1.310904e-06	-3.723526e-09	-9.072485e+00	-2.430168e+02
5.900000e-07	-1.262657e-06	-3.681010e-09	-8.738577e+00	-2.398968e+02
6.000000e-07	-1.214109e-06	-3.628647e-09	-8.402589e+00	-2.366911e+02
6.100000e-07	-1.165108e-06	-3.570263e-09	-8.063464e+00	-2.333822e+02
6.200000e-07	-1.115399e-06	-3.521963e-09	-7.719439e+00	-2.299610e+02
6.300000e-07	-1.064908e-06	-3.466630e-09	-7.370001e+00	-2.264302e+02
6.400000e-07	-1.013840e-06	-3.408985e-09	-7.016568e+00	-2.228033e+02
6.500000e-07	-9.623028e-07	-3.346455e-09	-6.659893e+00	-2.191017e+02
6.600000e-07	-9.103305e-07	-3.289305e-09	-6.300203e+00	-2.153472e+02
6.700000e-07	-8.580589e-07	-3.240917e-09	-5.938443e+00	-2.115557e+02
6.800000e-07	-8.055561e-07	-3.184226e-09	-5.575082e+00	-2.077318e+02
6.900000e-07	-7.527938e-07	-3.118957e-09	-5.209925e+00	-2.038673e+02
7.000000e-07	-6.997394e-07	-3.049149e-09	-4.842747e+00	-1.999435e+02
7.100000e-07	-6.464117e-07	-2.991326e-09	-4.473678e+00	-1.959377e+02
7.200000e-07	-5.928558e-07	-2.930984e-09	-4.103029e+00	-1.918299e+02
7.300000e-07	-5.390732e-07	-2.865493e-09	-3.730811e+00	-1.876090e+02
7.400000e-07	-4.850536e-07	-2.794947e-09	-3.356953e+00	-1.832750e+02
7.500000e-07	-4.308609e-07	-2.727261e-09	-2.981897e+00	-1.788368e+02
7.600000e-07	-3.765861e-07	-2.660475e-09	-2.606272e+00	-1.743069e+02
7.700000e-07	-3.222533e-07	-2.585053e-09	-2.230247e+00	-1.696942e+02
7.800000e-07	-2.678404e-07	-2.506056e-09	-1.853667e+00	-1.649978e+02
7.900000e-07	-2.133156e-07	-2.429398e-09	-1.476312e+00	-1.602051e+02
8.000000e-07	-1.587334e-07	-2.362908e-09	-1.098560e+00	-1.552939e+02
8.100000e-07	-1.041343e-07	-2.290241e-09	-7.206915e-01	-1.502386e+02
8.200000e-07	-4.951133e-08	-2.209448e-09	-3.426574e-01	-1.450181e+02
8.300000e-07	5.117623e-09	-2.122505e-09	3.541798e-02	-1.396219e+02
8.400000e-07	5.973290e-08	-2.035529e-09	4.133987e-01	-1.340530e+02
8.500000e-07	1.142920e-07	-1.946056e-09	7.909904e-01	-1.283247e+02
8.600000e-07	1.688186e-07	-1.851620e-09	1.168357e+00	-1.224542e+02
8.700000e-07	2.233364e-07	-1.759601e-09	1.545664e+00	-1.164541e+02
8.800000e-07	2.777991e-07	-1.672901e-09	1.922589e+00	-1.103251e+02
8.900000e-07	3.321883e-07	-1.587307e-09	2.299004e+00	-1.040533e+02
9.000000e-07	3.865082e-07	-1.485390e-09	2.674941e+00	-9.761205e+01
9.100000e-07	4.407270e-07	-1.376505e-09	3.050178e+00	-9.096869e+01
9.200000e-07	4.947775e-07	-1.268832e-09	3.424250e+00	-8.409274e+01
9.300000e-07	5.486698e-07	-1.161026e-09	3.797227e+00	-7.696283e+01
9.400000e-07	6.023343e-07	-1.045232e-09	4.168628e+00	-6.956945e+01
9.500000e-07	6.557283e-07	-9.247880e-10	4.538156e+00	-6.191274e+01
9.600000e-07	7.088587e-07	-8.048289e-10	4.905861e+00	-5.399599e+01
9.700000e-07	7.617060e-07	-6.826892e-10	5.271605e+00	-4.581774e+01
9.800000e-07	8.142919e-07	-5.566634e-10	5.635541e+00	-3.736544e+01
9.900000e-07	8.666487e-07	-4.206332e-10	5.997891e+00	-2.861341e+01
1.000000e-06	9.187372e-07	-2.794088e-10	6.358384e+00	-1.952587e+01
1.010000e-06	9.704338e-07	-1.318896e-10	6.716166e+00	-1.006405e+01
1.020000e-06	1.021611e-06	2.026012e-11	7.070356e+00	-1.948330e-01
1.030000e-06	1.072098e-06	1.798519e-10	7.419760e+00	1.010197e+01
1.040000e-06	1.121873e-06	3.458203e-10	7.764244e+00	2.082993e+01
1.050000e-06	1.171039e-06	5.148341e-10	8.104512e+00	3.197650e+01
1.060000e-06	1.219758e-06	6.890020e-10	8.441687e+00	4.351626e+01
1.070000e-06	1.268192e-06	8.704170e-10	8.776889e+00	5.541472e+01
1.080000e-06	1.316373e-06	1.057952e-09	9.110340e+00	6.763020e+01
1.090000e-06	1.364184e-06	1.246384e-09	9.441224e+00	8.011236e+01
1.100000e-06	1.411428e-06	1.439112e-09	9.768191e+00	9.279804e+01
1.110000e-06	1.458124e-06	1.635348e-09	1.009137e+01	1.056065e+02
1.120000e-06	1.504327e-06	1.832750e-09	1.041113e+01	1.184367e+02
1.130000e-06	1.549987e-06	2.022892e-09	1.072713e+01	1.311703e+02
1.140000e-06	1.595130e-06	2.209025e-09	1.103955e+01	1.436790e+02
1.150000e-06	1.639837e-06	2.395157e-09	1.134896e+01	1.558376e+02
1.160000e-06	1.684212e-06	2.574058e-09	1.165607e+01	1.675375e+02
1.170000e-06	1.728176e-06	2.742525e-09	1.196034e+01	1.786972e+02
1.180000e-06	1.771314e-06	2.899949e-09	1.225889e+01	1.892676e+02
1.190000e-06	1.813390e-06	3.052240e-09	1.255008e+01	1.992297e+02
1.200000e-06	1.854556e-06	3.198266e-09	1.283499e+01	2.085864e+02
1.210000e-06	1.895121e-06	3.335278e-09	1.311573e+01	2.173517e+02
1.220000e-06	1.935314e-06	3.459298e-09	1.339389e+01	2.255418e+02
1.230000e-06	1.974885e-06	3.570677e-09	1.366776e+01	2.331706e+02
1.240000e-06	2.013684e-06	3.673149e-09	1.393628e+01	2.402508e+02
1.250000e-06	2.051806e-06	3.767340e-09	1.420011e+01	2.468001e+02
1.260000e-06	2.089156e-06	3.856444e-09	1.445860e+01	2.528476e+02
1.270000e-06	2.125877e-06	3.943882e-09	1.471274e+01	2.584377e+02
1.280000e-06	2.162209e-06	4.027805e-09	1.496419e+01	2.636286e+02
1.290000e-06	2.197923e-06	4.104250e-09	1.521136e+01	2.684845e+02
1.300000e-06	2.232557e-06	4.173737e-09	1.545105e+01	2.730639e+02
1.310000e-06	2.266012e-06	4.236721e-09	1.568259e+01	2.774085e+02
1.320000e-06	2.298630e-06	4.294308e-09	1.590833e+01	2.815359e+02
1.330000e-06	2.330558e-06	4.347619e-09	1.612930e+01	2.854407e+02
1.340000e-06	2.361720e-06	4.398339e-09	1.634496e+01	2.891024e+02
1.350000e-06	2.392140e-06	4.447137e-09	1.655549e+01	2.924985e+02
1.360000e-06	2.421715e-06	4.495078e-09	1.676018e+01	2.956179e+02
1.370000e-06	2.450519e-06	4.540647e-09	1.695952e+01	2.984697e+02
1.380000e-06	2.478786e-06	4.579698e-09	1.715515e+01	3.010846e+02
1.390000e-06	2.506192e-06	4.614458e-09	1.734482e+01	3.035080e+02
1.400000e-06	2.532274e-06	4.647580e-09	1.752533e+01	3.057877e+02
1.410000e-06	2.557225e-06	4.679167e-09	1.769801e+01	3.079611e+02
1.420000e-06	2.581360e-06	4.708549e-09	1.786504e+01	3.100459e+02
1.430000e-06	2.604604e-06	4.737542e-09	1.802591e+01	3.120389e+02
1.440000e-06	2.626911e-06	4.766640e-09	1.818029e+01	3.139217e+02
1.450000e-06	2.648322e-06	4.791793e-09	1.832848e+01	3.156717e+02
1.460000e-06	2.668992e-06	4.811788e-09	1.847153e+01	3.172740e+02
1.470000e-06	2.689009e-06	4.830478e-09	1.861006e+01	3.187295e+02
1.480000e-06	2.708078e-06	4.851494e-09	1.874203e+01	3.200561e+02
1.490000e-06	2.726097e-06	4.872939e-09	1.886674e+01	3.212827e+02
1.500000e-06	2.743247e-06	4.891268e-09	1.898543e+01	3.224395e+02
1.510000e-06	2.759320e-06	4.906607e-09	1.909667e+01	3.235471e+02
1.520000e-06	2.774209e-06	4.921930e-09	1.919971e+01	3.246106e+02
1.530000e-06	2.788037e-06	4.937105e-09	1.929541e+01	3.256191e+02
1.540000e-06	2.800887e-06	4.949760e-09	1.938434e+01	3.265525e+02
1.550000e-06	2.812762e-06	4.959870e-09	1.946653e+01	3.273909e+02
1.560000e-06	2.823301e-06	4.968918e-09	1.953947e+01	3.281239e+02
1.570000e-06	2.832504e-06	4.979912e-09	1.960316e+01	3.287562e+02
1.580000e-06	2.840756e-06	4.992519e-09	1.966027e+01	3.293061e+02
1.590000e-06	2.848128e-06	5.002829e-09	1.971129e+01	3.297983e+02
1.600000e-06	2.854472e-06	5.009509e-09	1.975519e+01	3.302550e+02
1.610000e-06	2.859818e-06	5.013657e-09	1.979219e+01	3.306865e+02
1.620000e-06	2.864401e-06	5.017530e-09	1.982391e+01	3.310882e+02
1.630000e-06	2.868225e-06	5.022184e-09	1.985037e+01	3.314421e+02
1.640000e-06	2.870785e-06	5.026535e-09	1.986809e+01	3.317253e+02
1.650000e-06	2.871994e-06	5.030720e-09	1.987646e+01	3.319187e+02
1.660000e-06	2.872289e-06	5.034796e-09	1.987850e+01	3.320156e+02
1.670000e-06	2.871715e-06	5.037314e-09	1.987453e+01	3.320239e+02
1.680000e-06	2.870239e-06	5.033612e-09	1.986432e+01	3.319631e+02
1.690000e-06	2.867850e-06	5.029398e-09	1.984778e+01	3.318557e+02
1.700000e-06	2.864619e-06	5.028190e-09	1.982542e+01	3.317182e+02
1.710000e-06	2.860681e-06	5.027458e-09	1.979816e+01	3.315534e+02
1.720000e-06	2.855658e-06	5.027046e-09	1.976340e+01	3.313496e+02
1.730000e-06	2.849343e-06	5.034117e-09	1.971970e+01	3.310847e+02
1.740000e-06	2.842126e-06	5.030041e-09	1.966975e+01	3.307361e+02
1.750000e-06	2.834076e-06	4.958858e-09	1.961403e+01	3.302909e+02
1.760000e-06	2.824533e-06	4.934086e-09	1.954799e+01	3.297527e+02
1.770000e-06	2.813320e-06	5.046806e-09	1.947039e+01	3.291430e+02
1.780000e-06	2.801494e-06	5.055486e-09	1.938854e+01	3.284953e+02
1.790000e-06	2.789772e-06	4.940973e-09	1.930742e+01	3.278440e+02
1.800000e-06	2.776984e-06	4.866586e-09	1.921892e+01	3.272130e+02
1.810000e-06	2.762229e-06	5.031879e-09	1.911680e+01	3.266069e+02
1.820000e-06	2.746575e-06	4.981558e-09	1.900846e+01	3.260086e+02
1.830000e-06	2.730548e-06	4.816951e-09	1.889754e+01	3.253842e+02
1.840000e-06	2.713155e-06	5.001488e-09	1.877717e+01	3.246935e+02
1.850000e-06	2.694394e-06	5.044955e-09	1.864733e+01	3.239021e+02
1.860000e-06	2.675152e-06	4.834817e-09	1.851416e+01	3.229913e+02
1.870000e-06	2.655045e-06	4.890291e-09	1.837500e+01	3.219627e+02
1.880000e-06	2.633550e-06	5.019790e-09	1.822624e+01	3.208355e+02
1.890000e-06	2.611136e-06	4.809150e-09	1.807112e+01	3.196385e+02
1.900000e-06	2.587779e-06	4.761031e-09	1.790947e+01	3.183997e+02
1.910000e-06	2.563312e-06	4.922834e-09	1.774014e+01	3.171364e+02
1.920000e-06	2.538265e-06	4.842330e-09	1.756679e+01	3.158510e+02
1.930000e-06	2.512492e-06	4.757999e-09	1.738842e+01	3.145308e+02
1.940000e-06	2.485681e-06	4.821710e-09	1.720287e+01	3.131544e+02
1.950000e-06	2.458254e-06	4.740270e-09	1.701305e+01	3.117000e+02
1.960000e-06	2.429932e-06	4.740718e-09	1.681704e+01	3.101532e+02
1.970000e-06	2.400320e-06	4.713667e-09	1.661210e+01	3.085119e+02
1.980000e-06	2.369785e-06	4.622250e-09	1.640077e+01	3.067862e+02
1.990000e-06	2.338507e-06	4.701236e-09	1.618431e+01	3.049946e+02
2.000000e-06	2.306549e-06	4.666590e-09	1.596313e+01	3.031572e+02
2.010000e-06	2.273864e-06	4.556623e-09	1.573693e+01	3.012892e+02
2.020000e-06	2.240242e-06	4.614590e-09	1.550424e+01	2.993961e+02
2.030000e-06	2.205890e-06	4.546936e-09	1.526650e+01	2.974734e+02
2.040000e-06	2.170983e-06	4.456058e-09	1.502491e+01	2.955094e+02
2.050000e-06	2.135345e-06	4.526969e-09	1.477827e+01	2.934898e+02
2.060000e-06	2.099029e-06	4.444226e-09	1.452693e+01	2.914037e+02
2.070000e-06	2.061819e-06	4.376370e-09	1.426941e+01	2.892473e+02
2.080000e-06	2.023373e-06	4.415400e-09	1.400334e+01	2.870249e+02
2.090000e-06	1.984138e-06	4.351548e-09	1.373180e+01	2.847474e+02
2.100000e-06	1.944455e-06	4.307348e-09	1.345716e+01	2.824282e+02
2.110000e-06	1.904140e-06	4.285962e-09	1.317815e+01	2.800783e+02
2.120000e-06	1.863150e-06	4.225999e-09	1.289447e+01	2.777022e+02
2.130000e-06	1.821562e-06	4.205168e-09	1.260664e+01	2.752967e+02
2.140000e-06	1.779419e-06	4.169182e-09	1.231498e+01	2.728508e+02
2.150000e-06	1.736657e-06	4.122698e-09	1.201903e+01	2.703500e+02
2.160000e-06	1.693381e-06	4.095725e-09	1.171953e+01	2.677798e+02
2.170000e-06	1.649741e-06	4.044096e-09	1.141751e+01	2.651306e+02
2.180000e-06	1.605565e-06	4.012841e-09	1.111178e+01	2.624005e+02
2.190000e-06	1.560722e-06	3.968552e-09	1.080142e+01	2.595953e+02
2.200000e-06	1.515286e-06	3.914442e-09	1.048697e+01	2.567268e+02
2.210000e-06	1.469343e-06	3.882230e-09	1.016901e+01	2.538083e+02
2.220000e-06	1.422982e-06	3.834282e-09	9.848156e+00	2.508494e+02
2.230000e-06	1.376186e-06	3.794424e-09	9.524289e+00	2.478523e+02
2.240000e-06	1.328869e-06	3.736245e-09	9.196820e+00	2.448096e+02
2.250000e-06	1.280924e-06	3.684156e-09	8.864999e+00	2.417054e+02
2.260000e-06	1.232315e-06	3.653798e-09	8.528587e+00	2.385199e+02
2.270000e-06	1.183236e-06	3.600595e-09	8.188924e+00	2.352344e+02
2.280000e-06	1.133755e-06	3.544596e-09	7.846477e+00	2.318377e+02
2.290000e-06	1.083874e-06	3.492524e-09	7.501265e+00	2.283297e+02
2.300000e-06	1.033565e-06	3.438176e-09	7.153086e+00	2.247220e+02
2.310000e-06	9.827663e-07	3.387429e-09	6.801516e+00	2.210346e+02
2.320000e-06	9.316160e-07	3.323592e-09	6.447516e+00	2.172899e+02
2.330000e-06	8.802114e-07	3.259230e-09	6.091756e+00	2.135057e+02
2.340000e-06	8.285679e-07	3.210692e-09	5.734342e+00	2.096892e+02
2.350000e-06	7.766259e-07	3.158743e-09	5.374863e+00	2.058348e+02
2.360000e-06	7.242481e-07	3.102531e-09	5.012367e+00	2.019258e+02
2.370000e-06	6.714586e-07	3.033417e-09	4.647022e+00	1.979396e+02
2.380000e-06	6.182665e-07	2.971775e-09	4.278891e+00	1.938552e+02
2.390000e-06	5.646451e-07	2.918501e-09	3.907789e+00	1.896591e+02
2.400000e-06	5.106610e-07	2.851736e-09	3.534176e+00	1.853489e+02
2.410000e-06	4.563467e-07	2.782178e-09	3.158279e+00	1.809321e+02
2.420000e-06	4.018565e-07	2.713688e-09	2.781163e+00	1.764211e+02
2.430000e-06	3.472215e-07	2.651515e-09	2.403046e+00	1.718260e+02
2.440000e-06	2.924215e-07	2.584029e-09	2.023787e+00	1.671484e+02
2.450000e-06	2.374916e-07	2.505115e-09	1.643629e+00	1.623781e+02
2.460000e-06	1.824643e-07	2.428009e-09	1.262796e+00	1.574946e+02
2.470000e-06	1.274107e-07	2.355047e-09	8.817822e-01	1.524724e+02
2.480000e-06	7.231956e-08	2.278651e-09	5.005083e-01	1.472887e+02
2.490000e-06	1.721227e-08	2.195835e-09	1.191225e-01	1.419306e+02
2.500000e-06	-3.788401e-08	2.109152e-09	-2.621871e-01	1.363980e+02
2.510000e-06	-9.294988e-08	2.024316e-09	-6.432863e-01	1.307026e+02
2.520000e-06	-1.480008e-07	1.941343e-09	-1.024282e+00	1.248614e+02
2.530000e-06	-2.030440e-07	1.850056e-09	-1.405224e+00	1.188887e+02
2.540000e-06	-2.580822e-07	1.753673e-09	-1.786132e+00	1.127881e+02
2.550000e-06	-3.130414e-07	1.657025e-09	-2.166493e+00	1.065490e+02
2.560000e-06	-3.678471e-07	1.563390e-09	-2.545792e+00	1.001469e+02
2.570000e-06	-4.224530e-07	1.464902e-09	-2.923707e+00	9.354975e+01
2.580000e-06	-4.768173e-07	1.356177e-09	-3.299951e+00	8.672600e+01
2.590000e-06	-5.309188e-07	1.246270e-09	-3.674376e+00	7.965187e+01
2.600000e-06	-5.846516e-07	1.137361e-09	-4.046249e+00	7.231536e+01
2.610000e-06	-6.379421e-07	1.025942e-09	-4.415061e+00	6.471495e+01
2.620000e-06	-6.908136e-07	9.051572e-10	-4.780974e+00	5.685394e+01
2.630000e-06	-7.432783e-07	7.801344e-10	-5.144071e+00	4.873250e+01
2.640000e-06	-7.953560e-07	6.543936e-10	-5.504490e+00	4.034081e+01
2.650000e-06	-8.471340e-07	5.260266e-10	-5.862834e+00	3.165593e+01
2.660000e-06	-8.986550e-07	3.885690e-10	-6.219400e+00	2.264375e+01
2.670000e-06	-9.498884e-07	2.420692e-10	-6.573976e+00	1.326541e+01
2.680000e-06	-1.000807e-06	9.218107e-11	-6.926373e+00	3.485877e+00
2.690000e-06	-1.051368e-06	-6.203161e-11	-7.276292e+00	-6.718244e+00
2.700000e-06	-1.101444e-06	-2.222781e-10	-7.622856e+00	-1.735420e+01
2.710000e-06	-1.151054e-06	-3.893199e-10	-7.966200e+00	-2.841267e+01
2.720000e-06	-1.200301e-06	-5.599194e-10	-8.307025e+00	-3.987064e+01
2.730000e-06	-1.249000e-06	-7.380023e-10	-8.644063e+00	-5.169534e+01
2.740000e-06	-1.297019e-06	-9.245180e-10	-8.976390e+00	-6.384662e+01
2.750000e-06	-1.344243e-06	-1.119509e-09	-9.303218e+00	-7.627627e+01
2.760000e-06	-1.390664e-06	-1.318893e-09	-9.624488e+00	-8.892431e+01
2.770000e-06	-1.436626e-06	-1.516454e-09	-9.942584e+00	-1.017141e+02
2.780000e-06	-1.482282e-06	-1.710532e-09	-1.025856e+01	-1.145489e+02
2.790000e-06	-1.527623e-06	-1.902281e-09	-1.057236e+01	-1.273137e+02
2.800000e-06	-1.572581e-06	-2.093577e-09	-1.088350e+01	-1.398813e+02
2.810000e-06	-1.616908e-06	-2.282011e-09	-1.119028e+01	-1.521247e+02
2.820000e-06	-1.660649e-06	-2.466001e-09	-1.149300e+01	-1.639306e+02
2.830000e-06	-1.704038e-06	-2.641073e-09	-1.179329e+01	-1.752111e+02
2.840000e-06	-1.747069e-06	-2.806804e-09	-1.209109e+01	-1.859101e+02
2.850000e-06	-1.789515e-06	-2.961914e-09	-1.238485e+01	-1.960028e+02
2.860000e-06	-1.831318e-06	-3.106083e-09	-1.267417e+01	-2.054881e+02
2.870000e-06	-1.872583e-06	-3.239439e-09	-1.295975e+01	-2.143785e+02
2.880000e-06	-1.913156e-06	-3.365126e-09	-1.324055e+01	-2.226905e+02
2.890000e-06	-1.953015e-06	-3.487028e-09	-1.351640e+01	-2.304383e+02
2.900000e-06	-1.992387e-06	-3.603651e-09	-1.378889e+01	-2.376347e+02
2.910000e-06	-2.031228e-06	-3.710314e-09	-1.405770e+01	-2.442957e+02
2.920000e-06	-2.069242e-06	-3.804876e-09	-1.432078e+01	-2.504473e+02
2.930000e-06	-2.106190e-06	-3.890858e-09	-1.457649e+01	-2.561307e+02
2.940000e-06	-2.142163e-06	-3.970227e-09	-1.482545e+01	-2.614017e+02
