# Temperatura_=_30.68
# Concentracion g/m^3_=_13400.0
# C_Vs_to_Am_M_A/Vsm_=_65563218390.804596
# pendiente_HvsI_1/m_=_3716.3
# ordenada_HvsI_A/m_=_1297.0
# frecuencia_Hz_=_300834.2838543222

Tiempo_(s)	Campo_(V.s)	Magnetizacion_(V.s)	Campo_(kA/m)	Magnetizacion_(A/m)
0.000000e+00	-2.862557e-06	-5.223942e-09	-1.980768e+01	-3.430030e+02
1.000000e-08	-2.862040e-06	-5.222994e-09	-1.980410e+01	-3.430243e+02
2.000000e-08	-2.860740e-06	-5.217659e-09	-1.979511e+01	-3.429652e+02
3.000000e-08	-2.858404e-06	-5.213368e-09	-1.977894e+01	-3.428392e+02
4.000000e-08	-2.854812e-06	-5.213748e-09	-1.975409e+01	-3.426627e+02
5.000000e-08	-2.850225e-06	-5.212956e-09	-1.972235e+01	-3.424475e+02
6.000000e-08	-2.844888e-06	-5.204768e-09	-1.968542e+01	-3.421961e+02
7.000000e-08	-2.838670e-06	-5.190428e-09	-1.964240e+01	-3.419002e+02
8.000000e-08	-2.831425e-06	-5.192376e-09	-1.959226e+01	-3.415441e+02
9.000000e-08	-2.823063e-06	-5.232731e-09	-1.953440e+01	-3.411110e+02
1.000000e-07	-2.813418e-06	-5.239349e-09	-1.946766e+01	-3.405897e+02
1.100000e-07	-2.802321e-06	-5.149144e-09	-1.939087e+01	-3.399798e+02
1.200000e-07	-2.790199e-06	-5.069529e-09	-1.930700e+01	-3.392925e+02
1.300000e-07	-2.777398e-06	-5.174435e-09	-1.921842e+01	-3.385474e+02
1.400000e-07	-2.763599e-06	-5.232780e-09	-1.912293e+01	-3.377662e+02
1.500000e-07	-2.748809e-06	-5.069093e-09	-1.902059e+01	-3.369661e+02
1.600000e-07	-2.733051e-06	-5.074548e-09	-1.891156e+01	-3.361540e+02
1.700000e-07	-2.715792e-06	-5.220971e-09	-1.879213e+01	-3.353253e+02
1.800000e-07	-2.697334e-06	-5.142148e-09	-1.866441e+01	-3.344665e+02
1.900000e-07	-2.678397e-06	-5.027827e-09	-1.853337e+01	-3.335600e+02
2.000000e-07	-2.658670e-06	-5.145231e-09	-1.839687e+01	-3.325909e+02
2.100000e-07	-2.637945e-06	-5.112356e-09	-1.825346e+01	-3.315520e+02
2.200000e-07	-2.616515e-06	-4.961520e-09	-1.810517e+01	-3.304451e+02
2.300000e-07	-2.594328e-06	-5.087130e-09	-1.795165e+01	-3.292798e+02
2.400000e-07	-2.571089e-06	-5.113695e-09	-1.779085e+01	-3.280680e+02
2.500000e-07	-2.546906e-06	-4.938000e-09	-1.762351e+01	-3.268186e+02
2.600000e-07	-2.522011e-06	-4.961320e-09	-1.745124e+01	-3.255324e+02
2.700000e-07	-2.496206e-06	-5.007054e-09	-1.727269e+01	-3.242008e+02
2.800000e-07	-2.469322e-06	-4.917671e-09	-1.708666e+01	-3.228075e+02
2.900000e-07	-2.441399e-06	-4.911097e-09	-1.689345e+01	-3.213336e+02
3.000000e-07	-2.412530e-06	-4.904393e-09	-1.669368e+01	-3.197639e+02
3.100000e-07	-2.382877e-06	-4.871448e-09	-1.648850e+01	-3.180924e+02
3.200000e-07	-2.352538e-06	-4.875743e-09	-1.627857e+01	-3.163251e+02
3.300000e-07	-2.321416e-06	-4.837899e-09	-1.606321e+01	-3.144792e+02
3.400000e-07	-2.289412e-06	-4.765988e-09	-1.584176e+01	-3.125780e+02
3.500000e-07	-2.256736e-06	-4.755223e-09	-1.561566e+01	-3.106446e+02
3.600000e-07	-2.223550e-06	-4.735323e-09	-1.538603e+01	-3.086949e+02
3.700000e-07	-2.189563e-06	-4.705768e-09	-1.515085e+01	-3.067330e+02
3.800000e-07	-2.154313e-06	-4.692599e-09	-1.490694e+01	-3.047508e+02
3.900000e-07	-2.117984e-06	-4.637438e-09	-1.465555e+01	-3.027306e+02
4.000000e-07	-2.081085e-06	-4.616869e-09	-1.440022e+01	-3.006517e+02
4.100000e-07	-2.043603e-06	-4.598571e-09	-1.414087e+01	-2.984970e+02
4.200000e-07	-2.005333e-06	-4.534966e-09	-1.387606e+01	-2.962591e+02
4.300000e-07	-1.966306e-06	-4.482255e-09	-1.360601e+01	-2.939424e+02
4.400000e-07	-1.926548e-06	-4.469950e-09	-1.333090e+01	-2.915611e+02
4.500000e-07	-1.886140e-06	-4.441081e-09	-1.305129e+01	-2.891344e+02
4.600000e-07	-1.845372e-06	-4.399131e-09	-1.276919e+01	-2.866788e+02
4.700000e-07	-1.804280e-06	-4.361054e-09	-1.248485e+01	-2.842023e+02
4.800000e-07	-1.762430e-06	-4.320526e-09	-1.219527e+01	-2.817006e+02
4.900000e-07	-1.719395e-06	-4.279574e-09	-1.189748e+01	-2.791581e+02
5.000000e-07	-1.675369e-06	-4.239325e-09	-1.159285e+01	-2.765529e+02
5.100000e-07	-1.630803e-06	-4.200110e-09	-1.128446e+01	-2.738641e+02
5.200000e-07	-1.585868e-06	-4.147262e-09	-1.097353e+01	-2.710787e+02
5.300000e-07	-1.540544e-06	-4.116606e-09	-1.065991e+01	-2.681965e+02
5.400000e-07	-1.494681e-06	-4.083125e-09	-1.034256e+01	-2.652301e+02
5.500000e-07	-1.448211e-06	-4.026488e-09	-1.002101e+01	-2.622000e+02
5.600000e-07	-1.401211e-06	-3.968169e-09	-9.695789e+00	-2.591273e+02
5.700000e-07	-1.353681e-06	-3.926745e-09	-9.366902e+00	-2.560254e+02
5.800000e-07	-1.305644e-06	-3.884312e-09	-9.034503e+00	-2.528942e+02
5.900000e-07	-1.257205e-06	-3.832929e-09	-8.699328e+00	-2.497192e+02
6.000000e-07	-1.208441e-06	-3.785045e-09	-8.361902e+00	-2.464753e+02
6.100000e-07	-1.159311e-06	-3.731263e-09	-8.021939e+00	-2.431354e+02
6.200000e-07	-1.109689e-06	-3.678808e-09	-7.678581e+00	-2.396786e+02
6.300000e-07	-1.059349e-06	-3.624764e-09	-7.330244e+00	-2.360980e+02
6.400000e-07	-1.008386e-06	-3.569858e-09	-6.977606e+00	-2.324025e+02
6.500000e-07	-9.569142e-07	-3.508931e-09	-6.621441e+00	-2.286138e+02
6.600000e-07	-9.049327e-07	-3.449645e-09	-6.261751e+00	-2.247585e+02
6.700000e-07	-8.526065e-07	-3.392887e-09	-5.899676e+00	-2.208588e+02
6.800000e-07	-8.000022e-07	-3.332490e-09	-5.535676e+00	-2.169244e+02
6.900000e-07	-7.471582e-07	-3.269045e-09	-5.170018e+00	-2.129493e+02
7.000000e-07	-6.940056e-07	-3.204887e-09	-4.802225e+00	-2.089140e+02
7.100000e-07	-6.406215e-07	-3.145560e-09	-4.432829e+00	-2.047927e+02
7.200000e-07	-5.870880e-07	-3.081140e-09	-4.062400e+00	-2.005622e+02
7.300000e-07	-5.333652e-07	-3.012987e-09	-3.690661e+00	-1.962099e+02
7.400000e-07	-4.793814e-07	-2.941038e-09	-3.317116e+00	-1.917371e+02
7.500000e-07	-4.251172e-07	-2.868088e-09	-2.941631e+00	-1.871568e+02
7.600000e-07	-3.707663e-07	-2.796967e-09	-2.565546e+00	-1.824865e+02
7.700000e-07	-3.163871e-07	-2.725603e-09	-2.189265e+00	-1.777397e+02
7.800000e-07	-2.618539e-07	-2.651011e-09	-1.811918e+00	-1.729177e+02
7.900000e-07	-2.072256e-07	-2.574512e-09	-1.433913e+00	-1.680070e+02
8.000000e-07	-1.525793e-07	-2.500035e-09	-1.055784e+00	-1.629816e+02
8.100000e-07	-9.790063e-08	-2.420453e-09	-6.774309e-01	-1.578102e+02
8.200000e-07	-4.320023e-08	-2.337878e-09	-2.989273e-01	-1.524658e+02
8.300000e-07	1.151674e-08	-2.253345e-09	7.969095e-02	-1.469334e+02
8.400000e-07	6.624000e-08	-2.165771e-09	4.583527e-01	-1.412130e+02
8.500000e-07	1.209585e-07	-2.072219e-09	8.369813e-01	-1.353171e+02
8.600000e-07	1.756395e-07	-1.975700e-09	1.215351e+00	-1.292627e+02
8.700000e-07	2.302633e-07	-1.881523e-09	1.593325e+00	-1.230621e+02
8.800000e-07	2.848048e-07	-1.789349e-09	1.970729e+00	-1.167144e+02
8.900000e-07	3.392433e-07	-1.695018e-09	2.347420e+00	-1.102028e+02
9.000000e-07	3.936192e-07	-1.588145e-09	2.723678e+00	-1.034964e+02
9.100000e-07	4.478627e-07	-1.476220e-09	3.099020e+00	-9.655792e+01
9.200000e-07	5.018704e-07	-1.366705e-09	3.472731e+00	-8.935296e+01
9.300000e-07	5.556834e-07	-1.255252e-09	3.845094e+00	-8.185712e+01
9.400000e-07	6.092982e-07	-1.133776e-09	4.216086e+00	-7.405906e+01
9.500000e-07	6.626202e-07	-1.005218e-09	4.585051e+00	-6.595758e+01
9.600000e-07	7.156423e-07	-8.769084e-10	4.951942e+00	-5.755435e+01
9.700000e-07	7.684416e-07	-7.475305e-10	5.317290e+00	-4.884502e+01
9.800000e-07	8.210707e-07	-6.105278e-10	5.681461e+00	-3.981241e+01
9.900000e-07	8.734827e-07	-4.623004e-10	6.044130e+00	-3.042448e+01
1.000000e-06	9.255076e-07	-3.086274e-10	6.404120e+00	-2.063818e+01
1.010000e-06	9.770166e-07	-1.496411e-10	6.760541e+00	-1.040773e+01
1.020000e-06	1.027921e-06	1.390096e-11	7.112777e+00	3.051403e-01
1.030000e-06	1.078081e-06	1.857275e-10	7.459861e+00	1.152261e+01
1.040000e-06	1.127622e-06	3.682267e-10	7.802667e+00	2.324595e+01
1.050000e-06	1.176757e-06	5.563181e-10	8.142659e+00	3.545536e+01
1.060000e-06	1.225581e-06	7.465539e-10	8.480500e+00	4.811315e+01
1.070000e-06	1.274161e-06	9.432489e-10	8.816652e+00	6.116785e+01
1.080000e-06	1.322367e-06	1.150453e-09	9.150220e+00	7.455666e+01
1.090000e-06	1.370047e-06	1.360171e-09	9.480143e+00	8.820507e+01
1.100000e-06	1.417193e-06	1.567047e-09	9.806373e+00	1.020238e+02
1.110000e-06	1.463893e-06	1.774343e-09	1.012952e+01	1.159056e+02
1.120000e-06	1.510066e-06	1.987382e-09	1.044901e+01	1.297244e+02
1.130000e-06	1.555619e-06	2.195926e-09	1.076422e+01	1.433401e+02
1.140000e-06	1.600718e-06	2.393352e-09	1.107629e+01	1.566079e+02
1.150000e-06	1.645522e-06	2.583708e-09	1.138631e+01	1.693933e+02
1.160000e-06	1.689998e-06	2.770114e-09	1.169407e+01	1.815861e+02
1.170000e-06	1.733897e-06	2.950656e-09	1.199783e+01	1.931117e+02
1.180000e-06	1.776813e-06	3.115145e-09	1.229479e+01	2.039348e+02
1.190000e-06	1.818668e-06	3.263942e-09	1.258441e+01	2.140555e+02
1.200000e-06	1.859794e-06	3.406594e-09	1.286899e+01	2.234979e+02
1.210000e-06	1.900443e-06	3.546262e-09	1.315026e+01	2.322962e+02
1.220000e-06	1.940555e-06	3.674024e-09	1.342782e+01	2.404831e+02
1.230000e-06	1.980007e-06	3.783837e-09	1.370081e+01	2.480829e+02
1.240000e-06	2.018819e-06	3.882957e-09	1.396937e+01	2.551131e+02
1.250000e-06	2.056896e-06	3.980637e-09	1.423285e+01	2.615905e+02
1.260000e-06	2.094236e-06	4.073635e-09	1.449122e+01	2.675412e+02
1.270000e-06	2.131088e-06	4.156834e-09	1.474622e+01	2.730070e+02
1.280000e-06	2.167383e-06	4.232189e-09	1.499737e+01	2.780471e+02
1.290000e-06	2.202752e-06	4.304384e-09	1.524211e+01	2.827313e+02
1.300000e-06	2.236978e-06	4.374235e-09	1.547894e+01	2.871289e+02
1.310000e-06	2.270270e-06	4.437477e-09	1.570931e+01	2.912952e+02
1.320000e-06	2.302925e-06	4.492647e-09	1.593527e+01	2.952616e+02
1.330000e-06	2.334853e-06	4.543875e-09	1.615619e+01	2.990328e+02
1.340000e-06	2.365998e-06	4.597310e-09	1.637170e+01	3.025925e+02
1.350000e-06	2.396382e-06	4.650256e-09	1.658195e+01	3.059150e+02
1.360000e-06	2.425934e-06	4.697351e-09	1.678643e+01	3.089806e+02
1.370000e-06	2.454776e-06	4.737992e-09	1.698601e+01	3.117869e+02
1.380000e-06	2.482953e-06	4.774203e-09	1.718098e+01	3.143541e+02
1.390000e-06	2.510037e-06	4.808976e-09	1.736839e+01	3.167213e+02
1.400000e-06	2.535815e-06	4.842673e-09	1.754676e+01	3.189364e+02
1.410000e-06	2.560604e-06	4.873412e-09	1.771830e+01	3.210419e+02
1.420000e-06	2.584555e-06	4.903443e-09	1.788403e+01	3.230643e+02
1.430000e-06	2.607673e-06	4.935089e-09	1.804399e+01	3.250080e+02
1.440000e-06	2.629972e-06	4.964865e-09	1.819829e+01	3.268582e+02
1.450000e-06	2.651415e-06	4.990239e-09	1.834667e+01	3.285901e+02
1.460000e-06	2.672126e-06	5.010589e-09	1.848998e+01	3.301813e+02
1.470000e-06	2.692048e-06	5.029496e-09	1.862783e+01	3.316225e+02
1.480000e-06	2.710971e-06	5.050252e-09	1.875877e+01	3.329222e+02
1.490000e-06	2.728933e-06	5.071558e-09	1.888306e+01	3.341052e+02
1.500000e-06	2.745933e-06	5.090705e-09	1.900070e+01	3.352042e+02
1.510000e-06	2.761762e-06	5.107272e-09	1.911022e+01	3.362483e+02
1.520000e-06	2.776467e-06	5.123541e-09	1.921197e+01	3.372538e+02
1.530000e-06	2.790189e-06	5.138888e-09	1.930692e+01	3.382197e+02
1.540000e-06	2.802904e-06	5.151373e-09	1.939491e+01	3.391297e+02
1.550000e-06	2.814481e-06	5.162389e-09	1.947502e+01	3.399598e+02
1.560000e-06	2.824684e-06	5.172924e-09	1.954562e+01	3.406891e+02
1.570000e-06	2.833748e-06	5.183662e-09	1.960833e+01	3.413077e+02
1.580000e-06	2.841964e-06	5.195421e-09	1.966518e+01	3.418218e+02
1.590000e-06	2.849268e-06	5.206234e-09	1.971572e+01	3.422511e+02
1.600000e-06	2.855610e-06	5.214094e-09	1.975961e+01	3.426219e+02
1.610000e-06	2.861038e-06	5.219059e-09	1.979717e+01	3.429579e+02
1.620000e-06	2.865645e-06	5.222364e-09	1.982905e+01	3.432725e+02
1.630000e-06	2.869195e-06	5.227086e-09	1.985362e+01	3.435644e+02
1.640000e-06	2.871417e-06	5.232532e-09	1.986899e+01	3.438198e+02
1.650000e-06	2.872543e-06	5.235815e-09	1.987678e+01	3.440187e+02
1.660000e-06	2.872791e-06	5.237717e-09	1.987850e+01	3.441428e+02
1.670000e-06	2.872141e-06	5.238312e-09	1.987400e+01	3.441825e+02
1.680000e-06	2.870584e-06	5.236496e-09	1.986322e+01	3.441400e+02
1.690000e-06	2.868150e-06	5.236620e-09	1.984638e+01	3.440273e+02
1.700000e-06	2.864963e-06	5.237662e-09	1.982433e+01	3.438606e+02
1.710000e-06	2.860897e-06	5.236299e-09	1.979619e+01	3.436535e+02
1.720000e-06	2.855585e-06	5.234192e-09	1.975944e+01	3.434105e+02
1.730000e-06	2.849131e-06	5.237746e-09	1.971478e+01	3.431255e+02
1.740000e-06	2.841934e-06	5.220034e-09	1.966498e+01	3.427841e+02
1.750000e-06	2.833805e-06	5.158242e-09	1.960873e+01	3.423690e+02
1.760000e-06	2.824048e-06	5.159512e-09	1.954121e+01	3.418673e+02
1.770000e-06	2.812659e-06	5.253883e-09	1.946241e+01	3.412761e+02
1.780000e-06	2.800785e-06	5.253108e-09	1.938025e+01	3.406043e+02
1.790000e-06	2.788990e-06	5.135428e-09	1.929863e+01	3.398699e+02
1.800000e-06	2.776020e-06	5.099704e-09	1.920888e+01	3.390951e+02
1.810000e-06	2.761084e-06	5.220467e-09	1.910553e+01	3.382983e+02
1.820000e-06	2.745356e-06	5.136767e-09	1.899670e+01	3.374890e+02
1.830000e-06	2.729214e-06	5.035666e-09	1.888500e+01	3.366651e+02
1.840000e-06	2.711691e-06	5.190693e-09	1.876375e+01	3.358145e+02
1.850000e-06	2.692973e-06	5.187583e-09	1.863423e+01	3.349199e+02
1.860000e-06	2.673776e-06	5.019400e-09	1.850139e+01	3.339655e+02
1.870000e-06	2.653588e-06	5.095225e-09	1.836171e+01	3.329419e+02
1.880000e-06	2.631938e-06	5.176730e-09	1.821190e+01	3.318493e+02
1.890000e-06	2.609367e-06	4.985833e-09	1.805571e+01	3.306958e+02
1.900000e-06	2.585925e-06	4.978199e-09	1.789351e+01	3.294934e+02
1.910000e-06	2.561469e-06	5.107488e-09	1.772428e+01	3.282519e+02
1.920000e-06	2.536419e-06	5.003263e-09	1.755095e+01	3.269742e+02
1.930000e-06	2.510588e-06	4.946802e-09	1.737220e+01	3.256538e+02
1.940000e-06	2.483847e-06	5.003507e-09	1.718717e+01	3.242757e+02
1.950000e-06	2.456523e-06	4.932209e-09	1.699810e+01	3.228208e+02
1.960000e-06	2.428100e-06	4.921945e-09	1.680142e+01	3.212728e+02
1.970000e-06	2.398253e-06	4.894094e-09	1.659490e+01	3.196233e+02
1.980000e-06	2.367537e-06	4.823243e-09	1.638235e+01	3.178757e+02
1.990000e-06	2.336183e-06	4.860964e-09	1.616540e+01	3.160451e+02
2.000000e-06	2.304111e-06	4.827289e-09	1.594347e+01	3.141539e+02
2.010000e-06	2.271306e-06	4.756215e-09	1.571648e+01	3.122261e+02
2.020000e-06	2.237597e-06	4.770763e-09	1.548323e+01	3.102793e+02
2.030000e-06	2.203091e-06	4.705066e-09	1.524445e+01	3.083206e+02
2.040000e-06	2.168073e-06	4.659281e-09	1.500215e+01	3.063443e+02
2.050000e-06	2.132347e-06	4.677670e-09	1.475494e+01	3.043343e+02
2.060000e-06	2.095732e-06	4.596598e-09	1.450158e+01	3.022699e+02
2.070000e-06	2.058093e-06	4.570842e-09	1.424113e+01	3.001327e+02
2.080000e-06	2.019504e-06	4.580727e-09	1.397411e+01	2.979130e+02
2.090000e-06	1.980366e-06	4.516353e-09	1.370329e+01	2.956125e+02
2.100000e-06	1.940650e-06	4.486487e-09	1.342848e+01	2.932438e+02
2.110000e-06	1.900222e-06	4.446964e-09	1.314873e+01	2.908255e+02
2.120000e-06	1.859190e-06	4.392592e-09	1.286481e+01	2.883754e+02
2.130000e-06	1.817551e-06	4.373934e-09	1.257668e+01	2.859036e+02
2.140000e-06	1.775282e-06	4.334959e-09	1.228420e+01	2.834085e+02
2.150000e-06	1.732527e-06	4.298078e-09	1.198835e+01	2.808768e+02
2.160000e-06	1.689407e-06	4.255083e-09	1.168998e+01	2.782873e+02
2.170000e-06	1.645757e-06	4.201302e-09	1.138794e+01	2.756181e+02
2.180000e-06	1.601351e-06	4.176085e-09	1.108067e+01	2.728541e+02
2.190000e-06	1.556296e-06	4.122151e-09	1.076891e+01	2.699923e+02
2.200000e-06	1.510799e-06	4.071948e-09	1.045409e+01	2.670427e+02
2.210000e-06	1.464918e-06	4.043888e-09	1.013661e+01	2.640246e+02
2.220000e-06	1.418622e-06	3.989301e-09	9.816264e+00	2.609599e+02
2.230000e-06	1.371716e-06	3.942228e-09	9.491690e+00	2.578640e+02
2.240000e-06	1.324163e-06	3.888259e-09	9.162645e+00	2.547401e+02
2.250000e-06	1.275979e-06	3.834833e-09	8.829237e+00	2.515766e+02
2.260000e-06	1.227266e-06	3.796922e-09	8.492163e+00	2.483501e+02
2.270000e-06	1.178238e-06	3.748670e-09	8.152909e+00	2.450332e+02
2.280000e-06	1.128776e-06	3.696838e-09	7.810649e+00	2.416028e+02
2.290000e-06	1.078828e-06	3.638140e-09	7.465031e+00	2.380488e+02
2.300000e-06	1.028416e-06	3.577782e-09	7.116202e+00	2.343767e+02
2.310000e-06	9.775914e-07	3.525067e-09	6.764518e+00	2.306061e+02
2.320000e-06	9.264996e-07	3.461400e-09	6.410985e+00	2.267632e+02
2.330000e-06	8.751580e-07	3.398837e-09	6.055722e+00	2.228720e+02
2.340000e-06	8.234904e-07	3.347338e-09	5.698205e+00	2.189453e+02
2.350000e-06	7.713617e-07	3.292529e-09	5.337496e+00	2.149804e+02
2.360000e-06	7.186932e-07	3.230439e-09	4.973053e+00	2.109604e+02
2.370000e-06	6.655560e-07	3.158435e-09	4.605366e+00	2.068600e+02
2.380000e-06	6.119834e-07	3.095851e-09	4.234666e+00	2.026547e+02
2.390000e-06	5.580727e-07	3.037636e-09	3.861626e+00	1.983292e+02
2.400000e-06	5.039112e-07	2.970213e-09	3.486852e+00	1.938817e+02
2.410000e-06	4.495218e-07	2.902326e-09	3.110500e+00	1.893232e+02
2.420000e-06	3.950175e-07	2.833665e-09	2.733354e+00	1.846711e+02
2.430000e-06	3.403767e-07	2.766609e-09	2.355263e+00	1.799403e+02
2.440000e-06	2.856123e-07	2.692343e-09	1.976316e+00	1.751354e+02
2.450000e-06	2.307940e-07	2.610077e-09	1.596996e+00	1.702459e+02
2.460000e-06	1.759164e-07	2.533750e-09	1.217267e+00	1.652479e+02
2.470000e-06	1.210106e-07	2.459843e-09	8.373421e-01	1.601106e+02
2.480000e-06	6.607821e-08	2.380955e-09	4.572332e-01	1.548053e+02
2.490000e-06	1.111678e-08	2.296635e-09	7.692343e-02	1.493140e+02
2.500000e-06	-4.383510e-08	2.209312e-09	-3.033203e-01	1.436335e+02
2.510000e-06	-9.874229e-08	2.122210e-09	-6.832548e-01	1.377740e+02
2.520000e-06	-1.536161e-07	2.033583e-09	-1.062959e+00	1.317526e+02
2.530000e-06	-2.084732e-07	1.939646e-09	-1.442546e+00	1.255831e+02
2.540000e-06	-2.632938e-07	1.841946e-09	-1.821882e+00	1.192681e+02
2.550000e-06	-3.180749e-07	1.742501e-09	-2.200944e+00	1.127941e+02
2.560000e-06	-3.727886e-07	1.643947e-09	-2.579539e+00	1.061327e+02
2.570000e-06	-4.273664e-07	1.540003e-09	-2.957194e+00	9.924743e+01
2.580000e-06	-4.817756e-07	1.429297e-09	-3.333683e+00	9.210235e+01
2.590000e-06	-5.360284e-07	1.317446e-09	-3.709090e+00	8.467052e+01
2.600000e-06	-5.900444e-07	1.202831e-09	-4.082857e+00	7.693786e+01
2.610000e-06	-6.436557e-07	1.082536e-09	-4.453825e+00	6.890150e+01
2.620000e-06	-6.968439e-07	9.537475e-10	-4.821865e+00	6.056326e+01
2.630000e-06	-7.496098e-07	8.213087e-10	-5.186982e+00	5.192074e+01
2.640000e-06	-8.018579e-07	6.859240e-10	-5.548517e+00	4.295990e+01
2.650000e-06	-8.536453e-07	5.466452e-10	-5.906864e+00	3.365175e+01
2.660000e-06	-9.050946e-07	4.022498e-10	-6.262871e+00	2.395501e+01
2.670000e-06	-9.562178e-07	2.493410e-10	-6.616622e+00	1.382365e+01
2.680000e-06	-1.007054e-06	8.730743e-11	-6.968386e+00	3.216957e+00
2.690000e-06	-1.057583e-06	-8.165159e-11	-7.318023e+00	-7.891249e+00
2.700000e-06	-1.107717e-06	-2.571557e-10	-7.664934e+00	-1.950688e+01
2.710000e-06	-1.157410e-06	-4.411500e-10	-8.008788e+00	-3.161448e+01
2.720000e-06	-1.206635e-06	-6.316078e-10	-8.349400e+00	-4.417982e+01
2.730000e-06	-1.255413e-06	-8.290011e-10	-8.686929e+00	-5.715410e+01
2.740000e-06	-1.303683e-06	-1.033186e-09	-9.020935e+00	-7.047688e+01
2.750000e-06	-1.351104e-06	-1.242772e-09	-9.349068e+00	-8.407632e+01
2.760000e-06	-1.397624e-06	-1.455134e-09	-9.670967e+00	-9.786665e+01
2.770000e-06	-1.443548e-06	-1.668519e-09	-9.988740e+00	-1.117446e+02
2.780000e-06	-1.489070e-06	-1.882981e-09	-1.030373e+01	-1.255881e+02
2.790000e-06	-1.534271e-06	-2.097129e-09	-1.061651e+01	-1.392592e+02
2.800000e-06	-1.579123e-06	-2.303378e-09	-1.092686e+01	-1.526133e+02
2.810000e-06	-1.623506e-06	-2.496577e-09	-1.123397e+01	-1.655121e+02
2.820000e-06	-1.667273e-06	-2.683058e-09	-1.153682e+01	-1.778392e+02
2.830000e-06	-1.710514e-06	-2.863846e-09	-1.183603e+01	-1.895117e+02
2.840000e-06	-1.753389e-06	-3.034190e-09	-1.213271e+01	-2.004862e+02
2.850000e-06	-1.795746e-06	-3.190238e-09	-1.242580e+01	-2.107557e+02
2.860000e-06	-1.837447e-06	-3.335308e-09	-1.271436e+01	-2.203403e+02
2.870000e-06	-1.878586e-06	-3.474410e-09	-1.299902e+01	-2.292735e+02
2.880000e-06	-1.919107e-06	-3.605290e-09	-1.327941e+01	-2.375887e+02
2.890000e-06	-1.958914e-06	-3.724877e-09	-1.355486e+01	-2.453125e+02
2.900000e-06	-1.998148e-06	-3.833779e-09	-1.382634e+01	-2.524631e+02
2.910000e-06	-2.036918e-06	-3.933810e-09	-1.409461e+01	-2.590569e+02
2.920000e-06	-2.074917e-06	-4.027595e-09	-1.435755e+01	-2.651173e+02
2.930000e-06	-2.111838e-06	-4.115588e-09	-1.461302e+01	-2.706823e+02
2.940000e-06	-2.147749e-06	-4.195420e-09	-1.486151e+01	-2.758077e+02
