# Temperatura_=_17.56
# Concentracion g/m^3_=_13400.0
# C_Vs_to_Am_M_A/Vsm_=_65563218390.804596
# pendiente_HvsI_1/m_=_3716.3
# ordenada_HvsI_A/m_=_1297.0
# frecuencia_Hz_=_300846.03496475174

Tiempo_(s)	Campo_(V.s)	Magnetizacion_(V.s)	Campo_(kA/m)	Magnetizacion_(A/m)
0.000000e+00	-2.855948e-06	-5.045290e-09	-1.980239e+01	-3.297867e+02
1.000000e-08	-2.854802e-06	-5.039403e-09	-1.979444e+01	-3.297856e+02
2.000000e-08	-2.852617e-06	-5.034618e-09	-1.977929e+01	-3.297171e+02
3.000000e-08	-2.849235e-06	-5.031806e-09	-1.975584e+01	-3.295720e+02
4.000000e-08	-2.844893e-06	-5.029462e-09	-1.972573e+01	-3.293436e+02
5.000000e-08	-2.839762e-06	-5.027679e-09	-1.969016e+01	-3.290315e+02
6.000000e-08	-2.833681e-06	-5.035291e-09	-1.964799e+01	-3.286428e+02
7.000000e-08	-2.826597e-06	-5.037666e-09	-1.959888e+01	-3.281909e+02
8.000000e-08	-2.818519e-06	-5.005679e-09	-1.954286e+01	-3.276916e+02
9.000000e-08	-2.809240e-06	-4.950491e-09	-1.947853e+01	-3.271582e+02
1.000000e-07	-2.798544e-06	-4.983811e-09	-1.940436e+01	-3.265976e+02
1.100000e-07	-2.786732e-06	-5.036956e-09	-1.932246e+01	-3.260088e+02
1.200000e-07	-2.774159e-06	-4.991994e-09	-1.923528e+01	-3.253842e+02
1.300000e-07	-2.760729e-06	-4.896416e-09	-1.914216e+01	-3.247137e+02
1.400000e-07	-2.746317e-06	-4.963210e-09	-1.904223e+01	-3.239894e+02
1.500000e-07	-2.730791e-06	-5.014327e-09	-1.893458e+01	-3.232092e+02
1.600000e-07	-2.713933e-06	-4.891950e-09	-1.881769e+01	-3.223776e+02
1.700000e-07	-2.695883e-06	-4.902514e-09	-1.869254e+01	-3.215036e+02
1.800000e-07	-2.677064e-06	-4.947250e-09	-1.856205e+01	-3.205957e+02
1.900000e-07	-2.657534e-06	-4.875296e-09	-1.842664e+01	-3.196572e+02
2.000000e-07	-2.637121e-06	-4.846865e-09	-1.828510e+01	-3.186825e+02
2.100000e-07	-2.615879e-06	-4.893944e-09	-1.813781e+01	-3.176574e+02
2.200000e-07	-2.593868e-06	-4.845882e-09	-1.798519e+01	-3.165624e+02
2.300000e-07	-2.570915e-06	-4.791840e-09	-1.782604e+01	-3.153786e+02
2.400000e-07	-2.547001e-06	-4.807306e-09	-1.766023e+01	-3.140941e+02
2.500000e-07	-2.522283e-06	-4.785824e-09	-1.748884e+01	-3.127077e+02
2.600000e-07	-2.496651e-06	-4.741950e-09	-1.731111e+01	-3.112293e+02
2.700000e-07	-2.469934e-06	-4.741889e-09	-1.712586e+01	-3.096766e+02
2.800000e-07	-2.442182e-06	-4.700195e-09	-1.693344e+01	-3.080691e+02
2.900000e-07	-2.413512e-06	-4.674662e-09	-1.673465e+01	-3.064210e+02
3.000000e-07	-2.384023e-06	-4.675440e-09	-1.653018e+01	-3.047376e+02
3.100000e-07	-2.353846e-06	-4.608783e-09	-1.632094e+01	-3.030143e+02
3.200000e-07	-2.322953e-06	-4.603252e-09	-1.610674e+01	-3.012397e+02
3.300000e-07	-2.291205e-06	-4.598596e-09	-1.588661e+01	-2.994012e+02
3.400000e-07	-2.258771e-06	-4.533197e-09	-1.566172e+01	-2.974905e+02
3.500000e-07	-2.225776e-06	-4.509173e-09	-1.543294e+01	-2.955070e+02
3.600000e-07	-2.191939e-06	-4.516278e-09	-1.519832e+01	-2.934583e+02
3.700000e-07	-2.156929e-06	-4.452967e-09	-1.495558e+01	-2.913564e+02
3.800000e-07	-2.120916e-06	-4.416424e-09	-1.470587e+01	-2.892125e+02
3.900000e-07	-2.084313e-06	-4.421032e-09	-1.445207e+01	-2.870325e+02
4.000000e-07	-2.047134e-06	-4.359712e-09	-1.419429e+01	-2.848141e+02
4.100000e-07	-2.009180e-06	-4.304321e-09	-1.393112e+01	-2.825483e+02
4.200000e-07	-1.970403e-06	-4.290414e-09	-1.366225e+01	-2.802227e+02
4.300000e-07	-1.930876e-06	-4.262718e-09	-1.338818e+01	-2.778278e+02
4.400000e-07	-1.890760e-06	-4.212679e-09	-1.311003e+01	-2.753605e+02
4.500000e-07	-1.850256e-06	-4.182695e-09	-1.282918e+01	-2.728264e+02
4.600000e-07	-1.809303e-06	-4.141081e-09	-1.254523e+01	-2.702373e+02
4.700000e-07	-1.767611e-06	-4.098155e-09	-1.225615e+01	-2.676070e+02
4.800000e-07	-1.724848e-06	-4.053587e-09	-1.195964e+01	-2.649451e+02
4.900000e-07	-1.681114e-06	-4.003496e-09	-1.165640e+01	-2.622530e+02
5.000000e-07	-1.636815e-06	-3.968168e-09	-1.134924e+01	-2.595233e+02
5.100000e-07	-1.592092e-06	-3.933858e-09	-1.103914e+01	-2.567416e+02
5.200000e-07	-1.546872e-06	-3.894717e-09	-1.072560e+01	-2.538925e+02
5.300000e-07	-1.501132e-06	-3.851234e-09	-1.040845e+01	-2.509648e+02
5.400000e-07	-1.454924e-06	-3.800743e-09	-1.008806e+01	-2.479558e+02
5.500000e-07	-1.408176e-06	-3.736993e-09	-9.763919e+00	-2.448709e+02
5.600000e-07	-1.360834e-06	-3.696496e-09	-9.435658e+00	-2.417211e+02
5.700000e-07	-1.313003e-06	-3.653540e-09	-9.104012e+00	-2.385168e+02
5.800000e-07	-1.264804e-06	-3.596374e-09	-8.769816e+00	-2.352625e+02
5.900000e-07	-1.216269e-06	-3.551977e-09	-8.433286e+00	-2.319536e+02
6.000000e-07	-1.167336e-06	-3.508635e-09	-8.094000e+00	-2.285772e+02
6.100000e-07	-1.117815e-06	-3.450044e-09	-7.750636e+00	-2.251163e+02
6.200000e-07	-1.067543e-06	-3.386796e-09	-7.402062e+00	-2.215563e+02
6.300000e-07	-1.016747e-06	-3.333418e-09	-7.049851e+00	-2.178913e+02
6.400000e-07	-9.655542e-07	-3.275677e-09	-6.694897e+00	-2.141265e+02
6.500000e-07	-9.138219e-07	-3.217597e-09	-6.336198e+00	-2.102776e+02
6.600000e-07	-8.616693e-07	-3.157189e-09	-5.974587e+00	-2.063652e+02
6.700000e-07	-8.092490e-07	-3.095350e-09	-5.611118e+00	-2.024074e+02
6.800000e-07	-7.565792e-07	-3.033714e-09	-5.245919e+00	-1.984133e+02
6.900000e-07	-7.036306e-07	-2.971690e-09	-4.878788e+00	-1.943789e+02
7.000000e-07	-6.504425e-07	-2.909955e-09	-4.509996e+00	-1.902882e+02
7.100000e-07	-5.970490e-07	-2.847395e-09	-4.139779e+00	-1.861179e+02
7.200000e-07	-5.434298e-07	-2.783575e-09	-3.767998e+00	-1.818452e+02
7.300000e-07	-4.896124e-07	-2.712559e-09	-3.394842e+00	-1.774543e+02
7.400000e-07	-4.355624e-07	-2.637746e-09	-3.020074e+00	-1.729407e+02
7.500000e-07	-3.813579e-07	-2.559792e-09	-2.644235e+00	-1.683106e+02
7.600000e-07	-3.270598e-07	-2.486230e-09	-2.267746e+00	-1.635769e+02
7.700000e-07	-2.726702e-07	-2.417097e-09	-1.890623e+00	-1.587523e+02
7.800000e-07	-2.182201e-07	-2.345234e-09	-1.513080e+00	-1.538430e+02
7.900000e-07	-1.637124e-07	-2.270218e-09	-1.135138e+00	-1.488447e+02
8.000000e-07	-1.091633e-07	-2.192905e-09	-7.569097e-01	-1.437434e+02
8.100000e-07	-5.460644e-08	-2.114021e-09	-3.786266e-01	-1.385188e+02
8.200000e-07	-5.626977e-11	-2.027368e-09	-3.901596e-04	-1.331505e+02
8.300000e-07	5.452609e-08	-1.935187e-09	3.780694e-01	-1.276239e+02
8.400000e-07	1.090922e-07	-1.843217e-09	7.564164e-01	-1.219334e+02
8.500000e-07	1.635874e-07	-1.757782e-09	1.134272e+00	-1.160824e+02
8.600000e-07	2.180370e-07	-1.673423e-09	1.511811e+00	-1.100796e+02
8.700000e-07	2.724722e-07	-1.584242e-09	1.889250e+00	-1.039334e+02
8.800000e-07	3.268616e-07	-1.489114e-09	2.266371e+00	-9.764680e+01
8.900000e-07	3.811667e-07	-1.386415e-09	2.642909e+00	-9.121355e+01
9.000000e-07	4.353599e-07	-1.281600e-09	3.018670e+00	-8.461824e+01
9.100000e-07	4.893740e-07	-1.175288e-09	3.393190e+00	-7.783870e+01
9.200000e-07	5.431840e-07	-1.066286e-09	3.766294e+00	-7.085048e+01
9.300000e-07	5.967571e-07	-9.532569e-10	4.137756e+00	-6.363129e+01
9.400000e-07	6.500500e-07	-8.407730e-10	4.507274e+00	-5.616404e+01
9.500000e-07	7.030740e-07	-7.254223e-10	4.874929e+00	-4.843747e+01
9.600000e-07	7.558022e-07	-6.047092e-10	5.240532e+00	-4.044459e+01
9.700000e-07	8.082419e-07	-4.771462e-10	5.604135e+00	-3.217968e+01
9.800000e-07	8.604862e-07	-3.436483e-10	5.966383e+00	-2.363521e+01
9.900000e-07	9.124728e-07	-2.061327e-10	6.326844e+00	-1.479991e+01
1.000000e-06	9.640189e-07	-6.208770e-11	6.684251e+00	-5.658690e+00
1.010000e-06	1.014995e-06	8.443086e-11	7.037706e+00	3.805600e+00
1.020000e-06	1.065360e-06	2.334096e-10	7.386922e+00	1.360903e+01
1.030000e-06	1.115092e-06	3.883757e-10	7.731754e+00	2.376290e+01
1.040000e-06	1.164256e-06	5.506209e-10	8.072642e+00	3.427022e+01
1.050000e-06	1.213015e-06	7.164990e-10	8.410725e+00	4.512295e+01
1.060000e-06	1.261524e-06	8.856616e-10	8.747071e+00	5.630017e+01
1.070000e-06	1.309733e-06	1.059782e-09	9.081341e+00	6.776706e+01
1.080000e-06	1.357470e-06	1.240258e-09	9.412334e+00	7.947481e+01
1.090000e-06	1.404686e-06	1.426642e-09	9.739717e+00	9.136131e+01
1.100000e-06	1.451408e-06	1.612097e-09	1.006368e+01	1.033528e+02
1.110000e-06	1.497632e-06	1.793417e-09	1.038418e+01	1.153665e+02
1.120000e-06	1.543338e-06	1.970603e-09	1.070109e+01	1.273141e+02
1.130000e-06	1.588493e-06	2.148256e-09	1.101419e+01	1.391064e+02
1.140000e-06	1.633205e-06	2.326198e-09	1.132421e+01	1.506573e+02
1.150000e-06	1.677571e-06	2.498870e-09	1.163183e+01	1.618880e+02
1.160000e-06	1.721370e-06	2.664455e-09	1.193553e+01	1.727294e+02
1.170000e-06	1.764378e-06	2.823613e-09	1.223373e+01	1.831246e+02
1.180000e-06	1.806505e-06	2.976202e-09	1.252583e+01	1.930287e+02
1.190000e-06	1.847782e-06	3.118234e-09	1.281203e+01	2.024093e+02
1.200000e-06	1.888430e-06	3.248904e-09	1.309387e+01	2.112464e+02
1.210000e-06	1.928571e-06	3.372210e-09	1.337220e+01	2.195324e+02
1.220000e-06	1.968102e-06	3.489320e-09	1.364630e+01	2.272726e+02
1.230000e-06	2.006917e-06	3.596851e-09	1.391543e+01	2.344848e+02
1.240000e-06	2.045005e-06	3.695803e-09	1.417952e+01	2.411984e+02
1.250000e-06	2.082401e-06	3.788746e-09	1.443881e+01	2.474520e+02
1.260000e-06	2.119222e-06	3.879208e-09	1.469412e+01	2.532892e+02
1.270000e-06	2.155556e-06	3.964322e-09	1.494606e+01	2.587539e+02
1.280000e-06	2.191160e-06	4.041308e-09	1.519292e+01	2.638855e+02
1.290000e-06	2.225715e-06	4.111507e-09	1.543252e+01	2.687153e+02
1.300000e-06	2.259164e-06	4.178040e-09	1.566444e+01	2.732649e+02
1.310000e-06	2.291771e-06	4.242524e-09	1.589053e+01	2.775477e+02
1.320000e-06	2.323691e-06	4.302521e-09	1.611186e+01	2.815715e+02
1.330000e-06	2.354877e-06	4.357243e-09	1.632809e+01	2.853423e+02
1.340000e-06	2.385325e-06	4.407125e-09	1.653921e+01	2.888677e+02
1.350000e-06	2.414987e-06	4.455735e-09	1.674488e+01	2.921588e+02
1.360000e-06	2.443891e-06	4.501943e-09	1.694529e+01	2.952304e+02
1.370000e-06	2.472091e-06	4.543471e-09	1.714082e+01	2.980991e+02
1.380000e-06	2.499420e-06	4.582321e-09	1.733032e+01	3.007816e+02
1.390000e-06	2.525580e-06	4.620195e-09	1.751170e+01	3.032925e+02
1.400000e-06	2.550567e-06	4.655568e-09	1.768495e+01	3.056431e+02
1.410000e-06	2.574652e-06	4.688022e-09	1.785195e+01	3.078428e+02
1.420000e-06	2.597882e-06	4.718313e-09	1.801302e+01	3.098996e+02
1.430000e-06	2.620223e-06	4.746665e-09	1.816793e+01	3.118218e+02
1.440000e-06	2.641736e-06	4.773090e-09	1.831710e+01	3.136189e+02
1.450000e-06	2.662492e-06	4.795551e-09	1.846102e+01	3.153008e+02
1.460000e-06	2.682505e-06	4.816115e-09	1.859978e+01	3.168768e+02
1.470000e-06	2.701615e-06	4.837215e-09	1.873228e+01	3.183537e+02
1.480000e-06	2.719742e-06	4.859392e-09	1.885797e+01	3.197350e+02
1.490000e-06	2.736866e-06	4.880861e-09	1.897670e+01	3.210209e+02
1.500000e-06	2.752872e-06	4.898463e-09	1.908769e+01	3.222101e+02
1.510000e-06	2.767790e-06	4.914475e-09	1.919112e+01	3.233017e+02
1.520000e-06	2.781705e-06	4.929552e-09	1.928760e+01	3.242981e+02
1.530000e-06	2.794610e-06	4.940393e-09	1.937708e+01	3.252054e+02
1.540000e-06	2.806443e-06	4.948197e-09	1.945913e+01	3.260332e+02
1.550000e-06	2.817009e-06	4.956974e-09	1.953239e+01	3.267923e+02
1.560000e-06	2.826313e-06	4.969914e-09	1.959690e+01	3.274917e+02
1.570000e-06	2.834651e-06	4.985576e-09	1.965472e+01	3.281360e+02
1.580000e-06	2.842116e-06	4.999005e-09	1.970648e+01	3.287247e+02
1.590000e-06	2.848639e-06	5.006530e-09	1.975171e+01	3.292531e+02
1.600000e-06	2.854209e-06	5.009943e-09	1.979033e+01	3.297147e+02
1.610000e-06	2.858920e-06	5.013611e-09	1.982299e+01	3.301044e+02
1.620000e-06	2.862676e-06	5.016817e-09	1.984904e+01	3.304210e+02
1.630000e-06	2.865189e-06	5.019679e-09	1.986646e+01	3.306676e+02
1.640000e-06	2.866515e-06	5.023950e-09	1.987566e+01	3.308502e+02
1.650000e-06	2.866925e-06	5.029507e-09	1.987850e+01	3.309746e+02
1.660000e-06	2.866491e-06	5.033999e-09	1.987549e+01	3.310431e+02
1.670000e-06	2.865136e-06	5.033816e-09	1.986609e+01	3.310532e+02
1.680000e-06	2.862851e-06	5.030234e-09	1.985025e+01	3.309977e+02
1.690000e-06	2.859761e-06	5.026330e-09	1.982882e+01	3.308670e+02
1.700000e-06	2.855863e-06	5.022993e-09	1.980180e+01	3.306539e+02
1.710000e-06	2.850890e-06	5.016805e-09	1.976731e+01	3.303565e+02
1.720000e-06	2.844746e-06	4.993063e-09	1.972471e+01	3.299808e+02
1.730000e-06	2.837659e-06	4.989881e-09	1.967557e+01	3.295392e+02
1.740000e-06	2.829625e-06	5.023550e-09	1.961987e+01	3.290475e+02
1.750000e-06	2.820264e-06	5.047250e-09	1.955496e+01	3.285196e+02
1.760000e-06	2.809472e-06	4.961238e-09	1.948013e+01	3.279638e+02
1.770000e-06	2.797844e-06	4.912052e-09	1.939951e+01	3.273806e+02
1.780000e-06	2.785941e-06	4.998544e-09	1.931698e+01	3.267633e+02
1.790000e-06	2.773139e-06	4.989407e-09	1.922821e+01	3.261019e+02
1.800000e-06	2.758733e-06	4.884967e-09	1.912832e+01	3.253877e+02
1.810000e-06	2.743248e-06	4.897171e-09	1.902096e+01	3.246175e+02
1.820000e-06	2.727127e-06	5.003022e-09	1.890917e+01	3.237947e+02
1.830000e-06	2.709866e-06	4.914065e-09	1.878949e+01	3.229277e+02
1.840000e-06	2.691370e-06	4.835401e-09	1.866125e+01	3.220256e+02
1.850000e-06	2.672167e-06	4.935053e-09	1.852809e+01	3.210928e+02
1.860000e-06	2.652174e-06	4.875488e-09	1.838947e+01	3.201255e+02
1.870000e-06	2.630959e-06	4.788023e-09	1.824237e+01	3.191109e+02
1.880000e-06	2.608684e-06	4.876112e-09	1.808792e+01	3.180300e+02
1.890000e-06	2.585494e-06	4.852874e-09	1.792713e+01	3.168634e+02
1.900000e-06	2.561298e-06	4.780048e-09	1.775936e+01	3.155975e+02
1.910000e-06	2.536337e-06	4.807706e-09	1.758629e+01	3.142290e+02
1.920000e-06	2.510635e-06	4.771609e-09	1.740808e+01	3.127660e+02
1.930000e-06	2.484032e-06	4.719320e-09	1.722362e+01	3.112253e+02
1.940000e-06	2.456726e-06	4.735049e-09	1.703428e+01	3.096265e+02
1.950000e-06	2.428628e-06	4.689393e-09	1.683946e+01	3.079851e+02
1.960000e-06	2.399273e-06	4.644232e-09	1.663593e+01	3.063082e+02
1.970000e-06	2.368838e-06	4.677942e-09	1.642489e+01	3.045929e+02
1.980000e-06	2.337643e-06	4.607701e-09	1.620860e+01	3.028286e+02
1.990000e-06	2.305755e-06	4.557715e-09	1.598749e+01	3.010025e+02
2.000000e-06	2.273105e-06	4.590703e-09	1.576111e+01	2.991051e+02
2.010000e-06	2.239582e-06	4.528475e-09	1.552867e+01	2.971344e+02
2.020000e-06	2.205339e-06	4.473344e-09	1.529124e+01	2.950967e+02
2.030000e-06	2.170470e-06	4.487023e-09	1.504947e+01	2.930035e+02
2.040000e-06	2.134975e-06	4.429472e-09	1.480335e+01	2.908666e+02
2.050000e-06	2.098809e-06	4.370438e-09	1.455259e+01	2.886932e+02
2.060000e-06	2.061687e-06	4.376193e-09	1.429519e+01	2.864823e+02
2.070000e-06	2.023428e-06	4.344964e-09	1.402991e+01	2.842260e+02
2.080000e-06	1.984381e-06	4.292082e-09	1.375917e+01	2.819121e+02
2.090000e-06	1.944804e-06	4.259844e-09	1.348476e+01	2.795302e+02
2.100000e-06	1.904584e-06	4.224709e-09	1.320588e+01	2.770758e+02
2.110000e-06	1.863672e-06	4.173497e-09	1.292221e+01	2.745530e+02
2.120000e-06	1.822191e-06	4.132198e-09	1.263459e+01	2.719729e+02
2.130000e-06	1.780161e-06	4.101346e-09	1.234317e+01	2.693492e+02
2.140000e-06	1.737536e-06	4.068401e-09	1.204762e+01	2.666927e+02
2.150000e-06	1.694427e-06	4.026228e-09	1.174871e+01	2.640065e+02
2.160000e-06	1.650890e-06	3.966963e-09	1.144683e+01	2.612846e+02
2.170000e-06	1.606802e-06	3.928084e-09	1.114114e+01	2.585135e+02
2.180000e-06	1.562031e-06	3.891112e-09	1.083071e+01	2.556776e+02
2.190000e-06	1.516650e-06	3.839120e-09	1.051605e+01	2.527646e+02
2.200000e-06	1.470774e-06	3.803143e-09	1.019796e+01	2.497701e+02
2.210000e-06	1.424542e-06	3.764816e-09	9.877395e+00	2.466982e+02
2.220000e-06	1.377871e-06	3.704295e-09	9.553790e+00	2.435593e+02
2.230000e-06	1.330648e-06	3.654101e-09	9.226362e+00	2.403643e+02
2.240000e-06	1.282867e-06	3.607936e-09	8.895059e+00	2.371191e+02
2.250000e-06	1.234422e-06	3.549672e-09	8.559152e+00	2.338209e+02
2.260000e-06	1.185488e-06	3.503836e-09	8.219859e+00	2.304579e+02
2.270000e-06	1.136200e-06	3.458703e-09	7.878112e+00	2.270134e+02
2.280000e-06	1.086474e-06	3.405668e-09	7.533324e+00	2.234721e+02
2.290000e-06	1.036256e-06	3.348431e-09	7.185126e+00	2.198259e+02
2.300000e-06	9.855892e-07	3.290126e-09	6.833814e+00	2.160782e+02
2.310000e-06	9.345909e-07	3.229945e-09	6.480205e+00	2.122430e+02
2.320000e-06	8.833619e-07	3.167758e-09	6.124997e+00	2.083406e+02
2.330000e-06	8.319152e-07	3.111231e-09	5.768279e+00	2.043901e+02
2.340000e-06	7.801461e-07	3.055923e-09	5.409326e+00	2.004026e+02
2.350000e-06	7.279119e-07	2.997033e-09	5.047148e+00	1.963764e+02
2.360000e-06	6.751907e-07	2.932035e-09	4.681593e+00	1.922975e+02
2.370000e-06	6.220776e-07	2.868998e-09	4.313321e+00	1.881433e+02
2.380000e-06	5.686201e-07	2.807839e-09	3.942661e+00	1.838905e+02
2.390000e-06	5.147506e-07	2.742430e-09	3.569144e+00	1.795215e+02
2.400000e-06	4.605819e-07	2.675071e-09	3.193553e+00	1.750298e+02
2.410000e-06	4.062875e-07	2.610836e-09	2.817090e+00	1.704198e+02
2.420000e-06	3.517602e-07	2.543494e-09	2.439012e+00	1.657038e+02
2.430000e-06	2.970119e-07	2.467111e-09	2.059402e+00	1.608949e+02
2.440000e-06	2.421952e-07	2.389667e-09	1.679317e+00	1.560008e+02
2.450000e-06	1.872928e-07	2.314634e-09	1.298638e+00	1.510194e+02
2.460000e-06	1.323038e-07	2.240299e-09	9.173594e-01	1.459380e+02
2.470000e-06	7.730157e-08	2.161310e-09	5.359886e-01	1.407372e+02
2.480000e-06	2.232044e-08	2.078206e-09	1.547640e-01	1.353960e+02
2.490000e-06	-3.269372e-08	1.995569e-09	-2.266896e-01	1.298985e+02
2.500000e-06	-8.774789e-08	1.913447e-09	-6.084206e-01	1.242374e+02
2.510000e-06	-1.427618e-07	1.826529e-09	-9.898722e-01	1.184147e+02
2.520000e-06	-1.976942e-07	1.732720e-09	-1.370759e+00	1.124384e+02
2.530000e-06	-2.525537e-07	1.636580e-09	-1.751140e+00	1.063176e+02
2.540000e-06	-3.073429e-07	1.540573e-09	-2.131034e+00	1.000563e+02
2.550000e-06	-3.620147e-07	1.446945e-09	-2.510114e+00	9.365031e+01
2.560000e-06	-4.165585e-07	1.348722e-09	-2.888306e+00	8.708558e+01
2.570000e-06	-4.708845e-07	1.244976e-09	-3.264988e+00	8.034089e+01
2.580000e-06	-5.249046e-07	1.140112e-09	-3.639549e+00	7.339184e+01
2.590000e-06	-5.786306e-07	1.033754e-09	-4.012071e+00	6.621548e+01
2.600000e-06	-6.319959e-07	9.228612e-10	-4.382092e+00	5.879366e+01
2.610000e-06	-6.848606e-07	8.046147e-10	-4.748642e+00	5.111415e+01
2.620000e-06	-7.372456e-07	6.823893e-10	-5.111865e+00	4.316940e+01
2.630000e-06	-7.892730e-07	5.585841e-10	-5.472610e+00	3.495369e+01
2.640000e-06	-8.409341e-07	4.317561e-10	-5.830814e+00	2.646000e+01
2.650000e-06	-8.922845e-07	2.986794e-10	-6.186864e+00	1.767780e+01
2.660000e-06	-9.433843e-07	1.606760e-10	-6.541176e+00	8.592607e+00
2.670000e-06	-9.941852e-07	1.775858e-11	-6.893416e+00	-8.125775e-01
2.680000e-06	-1.044657e-06	-1.304102e-10	-7.243377e+00	-1.055428e+01
2.690000e-06	-1.094695e-06	-2.839714e-10	-7.590322e+00	-2.064491e+01
2.700000e-06	-1.144298e-06	-4.425838e-10	-7.934256e+00	-3.108919e+01
2.710000e-06	-1.193512e-06	-6.042471e-10	-8.275495e+00	-4.188123e+01
2.720000e-06	-1.242184e-06	-7.714609e-10	-8.612974e+00	-5.300250e+01
2.730000e-06	-1.290205e-06	-9.460457e-10	-8.945936e+00	-6.442068e+01
2.740000e-06	-1.337444e-06	-1.125154e-09	-9.273480e+00	-7.608945e+01
2.750000e-06	-1.383951e-06	-1.305321e-09	-9.595947e+00	-8.794899e+01
2.760000e-06	-1.429986e-06	-1.488430e-09	-9.915146e+00	-9.992742e+01
2.770000e-06	-1.475651e-06	-1.674437e-09	-1.023177e+01	-1.119433e+02
2.780000e-06	-1.520961e-06	-1.859511e-09	-1.054594e+01	-1.239092e+02
2.790000e-06	-1.565828e-06	-2.038438e-09	-1.085703e+01	-1.357355e+02
2.800000e-06	-1.610188e-06	-2.211372e-09	-1.116461e+01	-1.473354e+02
2.810000e-06	-1.654038e-06	-2.384555e-09	-1.146866e+01	-1.586285e+02
2.820000e-06	-1.697417e-06	-2.554323e-09	-1.176944e+01	-1.695438e+02
2.830000e-06	-1.740413e-06	-2.713416e-09	-1.206756e+01	-1.800222e+02
2.840000e-06	-1.782872e-06	-2.863792e-09	-1.236196e+01	-1.900165e+02
2.850000e-06	-1.824649e-06	-3.011529e-09	-1.265163e+01	-1.994923e+02
2.860000e-06	-1.865844e-06	-3.153432e-09	-1.293727e+01	-2.084272e+02
2.870000e-06	-1.906460e-06	-3.282876e-09	-1.321889e+01	-2.168115e+02
2.880000e-06	-1.946412e-06	-3.400590e-09	-1.349591e+01	-2.246480e+02
2.890000e-06	-1.985804e-06	-3.513283e-09	-1.376904e+01	-2.319524e+02
2.900000e-06	-2.024662e-06	-3.620833e-09	-1.403847e+01	-2.387523e+02
2.910000e-06	-2.062687e-06	-3.719236e-09	-1.430212e+01	-2.450848e+02
2.920000e-06	-2.099688e-06	-3.808661e-09	-1.455868e+01	-2.509929e+02
2.930000e-06	-2.135736e-06	-3.892458e-09	-1.480862e+01	-2.565210e+02
2.940000e-06	-2.171057e-06	-3.975268e-09	-1.505353e+01	-2.617093e+02
