# Temperatura_=_30.29
# Concentracion g/m^3_=_13400.0
# C_Vs_to_Am_M_A/Vsm_=_65563218390.804596
# pendiente_HvsI_1/m_=_3716.3
# ordenada_HvsI_A/m_=_1297.0
# frecuencia_Hz_=_300833.2300870569

Tiempo_(s)	Campo_(V.s)	Magnetizacion_(V.s)	Campo_(kA/m)	Magnetizacion_(A/m)
0.000000e+00	-2.866119e-06	-5.248525e-09	-1.980637e+01	-3.430682e+02
1.000000e-08	-2.865589e-06	-5.247384e-09	-1.980270e+01	-3.431046e+02
2.000000e-08	-2.864365e-06	-5.242435e-09	-1.979425e+01	-3.430620e+02
3.000000e-08	-2.862140e-06	-5.237241e-09	-1.977887e+01	-3.429392e+02
4.000000e-08	-2.858602e-06	-5.234225e-09	-1.975442e+01	-3.427408e+02
5.000000e-08	-2.854034e-06	-5.231750e-09	-1.972286e+01	-3.424762e+02
6.000000e-08	-2.848649e-06	-5.227961e-09	-1.968564e+01	-3.421562e+02
7.000000e-08	-2.842383e-06	-5.224670e-09	-1.964234e+01	-3.417897e+02
8.000000e-08	-2.835183e-06	-5.227030e-09	-1.959259e+01	-3.413808e+02
9.000000e-08	-2.826906e-06	-5.236319e-09	-1.953539e+01	-3.409271e+02
1.000000e-07	-2.817358e-06	-5.219179e-09	-1.946941e+01	-3.404210e+02
1.100000e-07	-2.806317e-06	-5.181311e-09	-1.939310e+01	-3.398532e+02
1.200000e-07	-2.794205e-06	-5.145135e-09	-1.930941e+01	-3.392166e+02
1.300000e-07	-2.781406e-06	-5.181405e-09	-1.922096e+01	-3.385113e+02
1.400000e-07	-2.767622e-06	-5.186017e-09	-1.912570e+01	-3.377464e+02
1.500000e-07	-2.752831e-06	-5.137884e-09	-1.902349e+01	-3.369394e+02
1.600000e-07	-2.737077e-06	-5.145494e-09	-1.891462e+01	-3.361124e+02
1.700000e-07	-2.719902e-06	-5.170087e-09	-1.879593e+01	-3.352848e+02
1.800000e-07	-2.701488e-06	-5.147563e-09	-1.866868e+01	-3.344672e+02
1.900000e-07	-2.682495e-06	-5.082772e-09	-1.853743e+01	-3.336561e+02
2.000000e-07	-2.662778e-06	-5.087015e-09	-1.840118e+01	-3.328334e+02
2.100000e-07	-2.642127e-06	-5.068175e-09	-1.825847e+01	-3.319700e+02
2.200000e-07	-2.620712e-06	-5.026278e-09	-1.811048e+01	-3.310336e+02
2.300000e-07	-2.598508e-06	-5.064924e-09	-1.795704e+01	-3.299974e+02
2.400000e-07	-2.575258e-06	-5.070608e-09	-1.779636e+01	-3.288476e+02
2.500000e-07	-2.551037e-06	-5.003126e-09	-1.762899e+01	-3.275867e+02
2.600000e-07	-2.526077e-06	-4.981453e-09	-1.745650e+01	-3.262308e+02
2.700000e-07	-2.500268e-06	-4.957362e-09	-1.727815e+01	-3.248034e+02
2.800000e-07	-2.473399e-06	-4.926332e-09	-1.709247e+01	-3.233259e+02
2.900000e-07	-2.445432e-06	-4.909226e-09	-1.689921e+01	-3.218097e+02
3.000000e-07	-2.416492e-06	-4.877913e-09	-1.669921e+01	-3.202528e+02
3.100000e-07	-2.386761e-06	-4.878728e-09	-1.649376e+01	-3.186409e+02
3.200000e-07	-2.356390e-06	-4.880590e-09	-1.628388e+01	-3.169544e+02
3.300000e-07	-2.325282e-06	-4.833711e-09	-1.606890e+01	-3.151772e+02
3.400000e-07	-2.293339e-06	-4.774974e-09	-1.584816e+01	-3.133043e+02
3.500000e-07	-2.260722e-06	-4.766289e-09	-1.562276e+01	-3.113453e+02
3.600000e-07	-2.227503e-06	-4.729721e-09	-1.539320e+01	-3.093218e+02
3.700000e-07	-2.193401e-06	-4.695991e-09	-1.515754e+01	-3.072605e+02
3.800000e-07	-2.158127e-06	-4.687553e-09	-1.491378e+01	-3.051831e+02
3.900000e-07	-2.121876e-06	-4.646976e-09	-1.466326e+01	-3.030987e+02
4.000000e-07	-2.084993e-06	-4.617744e-09	-1.440838e+01	-3.009998e+02
4.100000e-07	-2.047466e-06	-4.601303e-09	-1.414905e+01	-2.988658e+02
4.200000e-07	-2.009194e-06	-4.548006e-09	-1.388457e+01	-2.966706e+02
4.300000e-07	-1.970169e-06	-4.489590e-09	-1.361489e+01	-2.943928e+02
4.400000e-07	-1.930414e-06	-4.472831e-09	-1.334016e+01	-2.920236e+02
4.500000e-07	-1.890077e-06	-4.440915e-09	-1.306141e+01	-2.895703e+02
4.600000e-07	-1.849320e-06	-4.400848e-09	-1.277976e+01	-2.870528e+02
4.700000e-07	-1.808103e-06	-4.362665e-09	-1.249493e+01	-2.844952e+02
4.800000e-07	-1.766044e-06	-4.321741e-09	-1.220428e+01	-2.819155e+02
4.900000e-07	-1.722946e-06	-4.276355e-09	-1.190645e+01	-2.793181e+02
5.000000e-07	-1.678974e-06	-4.231818e-09	-1.160258e+01	-2.766910e+02
5.100000e-07	-1.634411e-06	-4.191064e-09	-1.129463e+01	-2.740107e+02
5.200000e-07	-1.589458e-06	-4.149990e-09	-1.098398e+01	-2.712509e+02
5.300000e-07	-1.544038e-06	-4.117229e-09	-1.067010e+01	-2.683928e+02
5.400000e-07	-1.498069e-06	-4.074222e-09	-1.035244e+01	-2.654329e+02
5.500000e-07	-1.451543e-06	-4.022345e-09	-1.003091e+01	-2.623838e+02
5.600000e-07	-1.404480e-06	-3.962368e-09	-9.705683e+00	-2.592686e+02
5.700000e-07	-1.356926e-06	-3.913107e-09	-9.377061e+00	-2.561105e+02
5.800000e-07	-1.308906e-06	-3.870096e-09	-9.045217e+00	-2.529226e+02
5.900000e-07	-1.260496e-06	-3.826356e-09	-8.710683e+00	-2.497001e+02
6.000000e-07	-1.211747e-06	-3.779232e-09	-8.373797e+00	-2.464216e+02
6.100000e-07	-1.162566e-06	-3.725273e-09	-8.033931e+00	-2.430557e+02
6.200000e-07	-1.112799e-06	-3.668653e-09	-7.690017e+00	-2.395734e+02
6.300000e-07	-1.062279e-06	-3.606227e-09	-7.340896e+00	-2.359596e+02
6.400000e-07	-1.011094e-06	-3.546023e-09	-6.987181e+00	-2.322205e+02
6.500000e-07	-9.595162e-07	-3.485262e-09	-6.630754e+00	-2.283825e+02
6.600000e-07	-9.075718e-07	-3.430235e-09	-6.271792e+00	-2.244835e+02
6.700000e-07	-8.552438e-07	-3.376277e-09	-5.910178e+00	-2.205589e+02
6.800000e-07	-8.026229e-07	-3.318150e-09	-5.546541e+00	-2.166287e+02
6.900000e-07	-7.497624e-07	-3.253520e-09	-5.181247e+00	-2.126894e+02
7.000000e-07	-6.966530e-07	-3.186472e-09	-4.814233e+00	-2.087143e+02
7.100000e-07	-6.432755e-07	-3.122387e-09	-4.445367e+00	-2.046626e+02
7.200000e-07	-5.896465e-07	-3.058384e-09	-4.074763e+00	-2.004933e+02
7.300000e-07	-5.358573e-07	-2.994283e-09	-3.703052e+00	-1.961787e+02
7.400000e-07	-4.818517e-07	-2.923513e-09	-3.329845e+00	-1.917133e+02
7.500000e-07	-4.275713e-07	-2.850221e-09	-2.954739e+00	-1.871130e+02
7.600000e-07	-3.731509e-07	-2.776263e-09	-2.578666e+00	-1.824071e+02
7.700000e-07	-3.186544e-07	-2.701764e-09	-2.202067e+00	-1.776244e+02
7.800000e-07	-2.640843e-07	-2.624521e-09	-1.824960e+00	-1.727802e+02
7.900000e-07	-2.094763e-07	-2.548280e-09	-1.447590e+00	-1.678685e+02
8.000000e-07	-1.548173e-07	-2.475413e-09	-1.069868e+00	-1.628623e+02
8.100000e-07	-1.000919e-07	-2.398331e-09	-6.916871e-01	-1.577229e+02
8.200000e-07	-4.532108e-08	-2.315555e-09	-3.131922e-01	-1.524122e+02
8.300000e-07	9.438058e-09	-2.228397e-09	6.522188e-02	-1.469055e+02
8.400000e-07	6.417301e-08	-2.140322e-09	4.434688e-01	-1.411986e+02
8.500000e-07	1.188983e-07	-2.049373e-09	8.216490e-01	-1.353058e+02
8.600000e-07	1.735962e-07	-1.956154e-09	1.199640e+00	-1.292513e+02
8.700000e-07	2.282521e-07	-1.863085e-09	1.577340e+00	-1.230558e+02
8.800000e-07	2.828427e-07	-1.771781e-09	1.954590e+00	-1.167250e+02
8.900000e-07	3.373397e-07	-1.675230e-09	2.331192e+00	-1.102428e+02
9.000000e-07	3.917213e-07	-1.566816e-09	2.706997e+00	-1.035738e+02
9.100000e-07	4.459708e-07	-1.455852e-09	3.081890e+00	-9.667232e+01
9.200000e-07	5.000744e-07	-1.347965e-09	3.455773e+00	-8.949498e+01
9.300000e-07	5.540028e-07	-1.237700e-09	3.828447e+00	-8.201216e+01
9.400000e-07	6.076760e-07	-1.117662e-09	4.199356e+00	-7.421324e+01
9.500000e-07	6.611121e-07	-9.920266e-10	4.568627e+00	-6.610398e+01
9.600000e-07	7.142761e-07	-8.646551e-10	4.936018e+00	-5.769697e+01
9.700000e-07	7.671562e-07	-7.333461e-10	5.301447e+00	-4.899898e+01
9.800000e-07	8.198278e-07	-5.938661e-10	5.665435e+00	-4.000000e+01
9.900000e-07	8.723045e-07	-4.480135e-10	6.028076e+00	-3.066841e+01
1.000000e-06	9.244525e-07	-3.001225e-10	6.388446e+00	-2.095413e+01
1.010000e-06	9.760928e-07	-1.467221e-10	6.745307e+00	-1.079881e+01
1.020000e-06	1.027183e-06	1.595255e-11	7.098368e+00	-1.496472e-01
1.030000e-06	1.077657e-06	1.897261e-10	7.447165e+00	1.102770e+01
1.040000e-06	1.127485e-06	3.714744e-10	7.791504e+00	2.274076e+01
1.050000e-06	1.176783e-06	5.603337e-10	8.132179e+00	3.496842e+01
1.060000e-06	1.225671e-06	7.532943e-10	8.470024e+00	4.766466e+01
1.070000e-06	1.274279e-06	9.498676e-10	8.805930e+00	6.076529e+01
1.080000e-06	1.322587e-06	1.151419e-09	9.139764e+00	7.419428e+01
1.090000e-06	1.370392e-06	1.357650e-09	9.470122e+00	8.786707e+01
1.100000e-06	1.417661e-06	1.566468e-09	9.796775e+00	1.016903e+02
1.110000e-06	1.464449e-06	1.775501e-09	1.012010e+01	1.155595e+02
1.120000e-06	1.510661e-06	1.985308e-09	1.043945e+01	1.293569e+02
1.130000e-06	1.556276e-06	2.191927e-09	1.075467e+01	1.429532e+02
1.140000e-06	1.601419e-06	2.394140e-09	1.106663e+01	1.562140e+02
1.150000e-06	1.646215e-06	2.588899e-09	1.137620e+01	1.690106e+02
1.160000e-06	1.690729e-06	2.772872e-09	1.168381e+01	1.812327e+02
1.170000e-06	1.734704e-06	2.945422e-09	1.198770e+01	1.927992e+02
1.180000e-06	1.777785e-06	3.107333e-09	1.228542e+01	2.036644e+02
1.190000e-06	1.819865e-06	3.260729e-09	1.257621e+01	2.138166e+02
1.200000e-06	1.861091e-06	3.406167e-09	1.286110e+01	2.232711e+02
1.210000e-06	1.901796e-06	3.542492e-09	1.314239e+01	2.320593e+02
1.220000e-06	1.941993e-06	3.668353e-09	1.342018e+01	2.402183e+02
1.230000e-06	1.981523e-06	3.781721e-09	1.369335e+01	2.477834e+02
1.240000e-06	2.020381e-06	3.883681e-09	1.396188e+01	2.547860e+02
1.250000e-06	2.058515e-06	3.977611e-09	1.422541e+01	2.612561e+02
1.260000e-06	2.095909e-06	4.064297e-09	1.448382e+01	2.672276e+02
1.270000e-06	2.132751e-06	4.146787e-09	1.473841e+01	2.727422e+02
1.280000e-06	2.169159e-06	4.226514e-09	1.499001e+01	2.778506e+02
1.290000e-06	2.204740e-06	4.302126e-09	1.523590e+01	2.826090e+02
1.300000e-06	2.239126e-06	4.370650e-09	1.547352e+01	2.870716e+02
1.310000e-06	2.272520e-06	4.432136e-09	1.570430e+01	2.912825e+02
1.320000e-06	2.305223e-06	4.489478e-09	1.593029e+01	2.952694e+02
1.330000e-06	2.337229e-06	4.543666e-09	1.615146e+01	2.990416e+02
1.340000e-06	2.368431e-06	4.595599e-09	1.636709e+01	3.025938e+02
1.350000e-06	2.398820e-06	4.643740e-09	1.657709e+01	3.059135e+02
1.360000e-06	2.428367e-06	4.687626e-09	1.678128e+01	3.089903e+02
1.370000e-06	2.457221e-06	4.727904e-09	1.698067e+01	3.118237e+02
1.380000e-06	2.485444e-06	4.766187e-09	1.717571e+01	3.144268e+02
1.390000e-06	2.512658e-06	4.802985e-09	1.736377e+01	3.168249e+02
1.400000e-06	2.538578e-06	4.836072e-09	1.754289e+01	3.190501e+02
1.410000e-06	2.563448e-06	4.865049e-09	1.771476e+01	3.211337e+02
1.420000e-06	2.587506e-06	4.892601e-09	1.788101e+01	3.230995e+02
1.430000e-06	2.610683e-06	4.920671e-09	1.804117e+01	3.249606e+02
1.440000e-06	2.632943e-06	4.947132e-09	1.819500e+01	3.267195e+02
1.450000e-06	2.654347e-06	4.969186e-09	1.834291e+01	3.283723e+02
1.460000e-06	2.675063e-06	4.987520e-09	1.848607e+01	3.299140e+02
1.470000e-06	2.695039e-06	5.006864e-09	1.862412e+01	3.313438e+02
1.480000e-06	2.714015e-06	5.029625e-09	1.875525e+01	3.326674e+02
1.490000e-06	2.732030e-06	5.052504e-09	1.887974e+01	3.338968e+02
1.500000e-06	2.749017e-06	5.071829e-09	1.899713e+01	3.350467e+02
1.510000e-06	2.764889e-06	5.088317e-09	1.910682e+01	3.361305e+02
1.520000e-06	2.779757e-06	5.103785e-09	1.920956e+01	3.371558e+02
1.530000e-06	2.793606e-06	5.117108e-09	1.930527e+01	3.381232e+02
1.540000e-06	2.806435e-06	5.126823e-09	1.939392e+01	3.390263e+02
1.550000e-06	2.818082e-06	5.135841e-09	1.947441e+01	3.398551e+02
1.560000e-06	2.828362e-06	5.147691e-09	1.954545e+01	3.405999e+02
1.570000e-06	2.837505e-06	5.162159e-09	1.960863e+01	3.412552e+02
1.580000e-06	2.845741e-06	5.176501e-09	1.966555e+01	3.418218e+02
1.590000e-06	2.853051e-06	5.187257e-09	1.971606e+01	3.423071e+02
1.600000e-06	2.859368e-06	5.193554e-09	1.975972e+01	3.427229e+02
1.610000e-06	2.864733e-06	5.197945e-09	1.979679e+01	3.430821e+02
1.620000e-06	2.869299e-06	5.200847e-09	1.982834e+01	3.433954e+02
1.630000e-06	2.872865e-06	5.202250e-09	1.985299e+01	3.436681e+02
1.640000e-06	2.875129e-06	5.205139e-09	1.986863e+01	3.438990e+02
1.650000e-06	2.876271e-06	5.210829e-09	1.987653e+01	3.440812e+02
1.660000e-06	2.876557e-06	5.217114e-09	1.987850e+01	3.442042e+02
1.670000e-06	2.875979e-06	5.219945e-09	1.987451e+01	3.442571e+02
1.680000e-06	2.874493e-06	5.218496e-09	1.986424e+01	3.442320e+02
1.690000e-06	2.872072e-06	5.216839e-09	1.984750e+01	3.441265e+02
1.700000e-06	2.868840e-06	5.214365e-09	1.982518e+01	3.439439e+02
1.710000e-06	2.864773e-06	5.208727e-09	1.979707e+01	3.436929e+02
1.720000e-06	2.859547e-06	5.201950e-09	1.976095e+01	3.433842e+02
1.730000e-06	2.853175e-06	5.194489e-09	1.971692e+01	3.430275e+02
1.740000e-06	2.845970e-06	5.183378e-09	1.966713e+01	3.426280e+02
1.750000e-06	2.837817e-06	5.158624e-09	1.961079e+01	3.421846e+02
1.760000e-06	2.828151e-06	5.167785e-09	1.954399e+01	3.416909e+02
1.770000e-06	2.816909e-06	5.190079e-09	1.946630e+01	3.411374e+02
1.780000e-06	2.805061e-06	5.185655e-09	1.938442e+01	3.405161e+02
1.790000e-06	2.793170e-06	5.146025e-09	1.930225e+01	3.398254e+02
1.800000e-06	2.780192e-06	5.101869e-09	1.921257e+01	3.390723e+02
1.810000e-06	2.765429e-06	5.133907e-09	1.911055e+01	3.382729e+02
1.820000e-06	2.749763e-06	5.119558e-09	1.900229e+01	3.374486e+02
1.830000e-06	2.733559e-06	5.101811e-09	1.889031e+01	3.366202e+02
1.840000e-06	2.716046e-06	5.138741e-09	1.876929e+01	3.358005e+02
1.850000e-06	2.697358e-06	5.138295e-09	1.864014e+01	3.349894e+02
1.860000e-06	2.678157e-06	5.098645e-09	1.850746e+01	3.341717e+02
1.870000e-06	2.657994e-06	5.087982e-09	1.836812e+01	3.333201e+02
1.880000e-06	2.636432e-06	5.100531e-09	1.821912e+01	3.324022e+02
1.890000e-06	2.613831e-06	5.048852e-09	1.806293e+01	3.313894e+02
1.900000e-06	2.590286e-06	5.013147e-09	1.790022e+01	3.302646e+02
1.910000e-06	2.565846e-06	5.049433e-09	1.773133e+01	3.290268e+02
1.920000e-06	2.540769e-06	5.034037e-09	1.755803e+01	3.276898e+02
1.930000e-06	2.514865e-06	4.994007e-09	1.737902e+01	3.262760e+02
1.940000e-06	2.488110e-06	4.974198e-09	1.719413e+01	3.248081e+02
1.950000e-06	2.460715e-06	4.947492e-09	1.700482e+01	3.233002e+02
1.960000e-06	2.432198e-06	4.935659e-09	1.680775e+01	3.217532e+02
1.970000e-06	2.402314e-06	4.880414e-09	1.660124e+01	3.201550e+02
1.980000e-06	2.371607e-06	4.849195e-09	1.638904e+01	3.184864e+02
1.990000e-06	2.340202e-06	4.870963e-09	1.617201e+01	3.167299e+02
2.000000e-06	2.308021e-06	4.832654e-09	1.594962e+01	3.148775e+02
2.010000e-06	2.275138e-06	4.779925e-09	1.572238e+01	3.129357e+02
2.020000e-06	2.241383e-06	4.778319e-09	1.548912e+01	3.109241e+02
2.030000e-06	2.206849e-06	4.725324e-09	1.525047e+01	3.088691e+02
2.040000e-06	2.171796e-06	4.674650e-09	1.500824e+01	3.067942e+02
2.050000e-06	2.136048e-06	4.672154e-09	1.476120e+01	3.047116e+02
2.060000e-06	2.099415e-06	4.619700e-09	1.450805e+01	3.026175e+02
2.070000e-06	2.061798e-06	4.583588e-09	1.424809e+01	3.004935e+02
2.080000e-06	2.023219e-06	4.580437e-09	1.398149e+01	2.983139e+02
2.090000e-06	1.984003e-06	4.536025e-09	1.371049e+01	2.960553e+02
2.100000e-06	1.944213e-06	4.494402e-09	1.343552e+01	2.937059e+02
2.110000e-06	1.903738e-06	4.459310e-09	1.315582e+01	2.912696e+02
2.120000e-06	1.862621e-06	4.404543e-09	1.287167e+01	2.887642e+02
2.130000e-06	1.820923e-06	4.369333e-09	1.258352e+01	2.862136e+02
2.140000e-06	1.778650e-06	4.337671e-09	1.229139e+01	2.836381e+02
2.150000e-06	1.735840e-06	4.300630e-09	1.199555e+01	2.810452e+02
2.160000e-06	1.692602e-06	4.266283e-09	1.169676e+01	2.784265e+02
2.170000e-06	1.648875e-06	4.214499e-09	1.139458e+01	2.757603e+02
2.180000e-06	1.604454e-06	4.171069e-09	1.108761e+01	2.730197e+02
2.190000e-06	1.559416e-06	4.126530e-09	1.077638e+01	2.701839e+02
2.200000e-06	1.513909e-06	4.079578e-09	1.046189e+01	2.672456e+02
2.210000e-06	1.467974e-06	4.039847e-09	1.014446e+01	2.642142e+02
2.220000e-06	1.421611e-06	3.995935e-09	9.824071e+00	2.611113e+02
2.230000e-06	1.374654e-06	3.950017e-09	9.499570e+00	2.579612e+02
2.240000e-06	1.327056e-06	3.896149e-09	9.170646e+00	2.547796e+02
2.250000e-06	1.278864e-06	3.840690e-09	8.837612e+00	2.515662e+02
2.260000e-06	1.230171e-06	3.793684e-09	8.501122e+00	2.483025e+02
2.270000e-06	1.181047e-06	3.748373e-09	8.161651e+00	2.449584e+02
2.280000e-06	1.131456e-06	3.698645e-09	7.818949e+00	2.415032e+02
2.290000e-06	1.081408e-06	3.646505e-09	7.473090e+00	2.379181e+02
2.300000e-06	1.030935e-06	3.590938e-09	7.124295e+00	2.342046e+02
2.310000e-06	9.800669e-07	3.535449e-09	6.772771e+00	2.303851e+02
2.320000e-06	9.289230e-07	3.468695e-09	6.419340e+00	2.264962e+02
2.330000e-06	8.774828e-07	3.400008e-09	6.063861e+00	2.225750e+02
2.340000e-06	8.257229e-07	3.345900e-09	5.706173e+00	2.186457e+02
2.350000e-06	7.735491e-07	3.295607e-09	5.345625e+00	2.147103e+02
2.360000e-06	7.208386e-07	3.240562e-09	4.981369e+00	2.107463e+02
2.370000e-06	6.677112e-07	3.175683e-09	4.614231e+00	2.067150e+02
2.380000e-06	6.141985e-07	3.110064e-09	4.244430e+00	2.025741e+02
2.390000e-06	5.602991e-07	3.048051e-09	3.871957e+00	1.982923e+02
2.400000e-06	5.060582e-07	2.982134e-09	3.497125e+00	1.938588e+02
2.410000e-06	4.515702e-07	2.911951e-09	3.120584e+00	1.892855e+02
2.420000e-06	3.969739e-07	2.843759e-09	2.743296e+00	1.845999e+02
2.430000e-06	3.422630e-07	2.778214e-09	2.365215e+00	1.798321e+02
2.440000e-06	2.874017e-07	2.707501e-09	1.986095e+00	1.750011e+02
2.450000e-06	2.324786e-07	2.629890e-09	1.606548e+00	1.701058e+02
2.460000e-06	1.775382e-07	2.552580e-09	1.226881e+00	1.651232e+02
2.470000e-06	1.225846e-07	2.477302e-09	8.471232e-01	1.600161e+02
2.480000e-06	6.763633e-08	2.397932e-09	4.674021e-01	1.547451e+02
2.490000e-06	1.267559e-08	2.312949e-09	8.759488e-02	1.492818e+02
2.500000e-06	-4.229341e-08	2.225618e-09	-2.922694e-01	1.436175e+02
2.510000e-06	-9.725933e-08	2.138947e-09	-6.721124e-01	1.377630e+02
2.520000e-06	-1.522241e-07	2.050420e-09	-1.051947e+00	1.317413e+02
2.530000e-06	-2.071652e-07	1.955525e-09	-1.431619e+00	1.255752e+02
2.540000e-06	-2.620718e-07	1.856075e-09	-1.811052e+00	1.192743e+02
2.550000e-06	-3.169331e-07	1.756700e-09	-2.190172e+00	1.128272e+02
2.560000e-06	-3.717161e-07	1.659654e-09	-2.568751e+00	1.062023e+02
2.570000e-06	-4.263922e-07	1.557779e-09	-2.946591e+00	9.935485e+01
2.580000e-06	-4.809089e-07	1.448479e-09	-3.323330e+00	9.224003e+01
2.590000e-06	-5.352187e-07	1.334230e-09	-3.698639e+00	8.482453e+01
2.600000e-06	-5.892773e-07	1.216802e-09	-4.072212e+00	7.709362e+01
2.610000e-06	-6.429959e-07	1.095416e-09	-4.443435e+00	6.905016e+01
2.620000e-06	-6.963398e-07	9.675740e-10	-4.812069e+00	6.070631e+01
2.630000e-06	-7.492416e-07	8.350757e-10	-5.177648e+00	5.207113e+01
2.640000e-06	-8.016496e-07	6.988671e-10	-5.539814e+00	4.313887e+01
2.650000e-06	-8.535872e-07	5.597484e-10	-5.898730e+00	3.388256e+01
2.660000e-06	-9.051162e-07	4.154769e-10	-6.254822e+00	2.425543e+01
2.670000e-06	-9.563071e-07	2.629334e-10	-6.608578e+00	1.419979e+01
2.680000e-06	-1.007194e-06	1.012279e-10	-6.960232e+00	3.660444e+00
2.690000e-06	-1.057749e-06	-6.662515e-11	-7.309596e+00	-7.401787e+00
2.700000e-06	-1.107909e-06	-2.419826e-10	-7.656223e+00	-1.900057e+01
2.710000e-06	-1.157618e-06	-4.263075e-10	-7.999738e+00	-3.112077e+01
2.720000e-06	-1.206854e-06	-6.183219e-10	-8.339989e+00	-4.372118e+01
2.730000e-06	-1.255642e-06	-8.174911e-10	-8.677135e+00	-5.674092e+01
2.740000e-06	-1.303788e-06	-1.021346e-09	-9.009851e+00	-7.010608e+01
2.750000e-06	-1.351117e-06	-1.230067e-09	-9.336917e+00	-8.373385e+01
2.760000e-06	-1.397682e-06	-1.444195e-09	-9.658710e+00	-9.753294e+01
2.770000e-06	-1.443643e-06	-1.661176e-09	-9.976320e+00	-1.114014e+02
2.780000e-06	-1.489179e-06	-1.874794e-09	-1.029100e+01	-1.252244e+02
2.790000e-06	-1.534426e-06	-2.083170e-09	-1.060368e+01	-1.388748e+02
2.800000e-06	-1.579321e-06	-2.286774e-09	-1.091393e+01	-1.522184e+02
2.810000e-06	-1.623709e-06	-2.485543e-09	-1.122067e+01	-1.651243e+02
2.820000e-06	-1.667537e-06	-2.677566e-09	-1.152354e+01	-1.774771e+02
2.830000e-06	-1.710832e-06	-2.857786e-09	-1.182273e+01	-1.891889e+02
2.840000e-06	-1.753737e-06	-3.025299e-09	-1.211923e+01	-2.002061e+02
2.850000e-06	-1.796202e-06	-3.182150e-09	-1.241269e+01	-2.105103e+02
2.860000e-06	-1.838051e-06	-3.331541e-09	-1.270188e+01	-2.201117e+02
2.870000e-06	-1.879280e-06	-3.471126e-09	-1.298680e+01	-2.290393e+02
2.880000e-06	-1.919894e-06	-3.598294e-09	-1.326746e+01	-2.373297e+02
2.890000e-06	-1.959836e-06	-3.715229e-09	-1.354348e+01	-2.450190e+02
2.900000e-06	-1.999174e-06	-3.826741e-09	-1.381533e+01	-2.521393e+02
2.910000e-06	-2.037986e-06	-3.931455e-09	-1.408354e+01	-2.587206e+02
2.920000e-06	-2.076053e-06	-4.025023e-09	-1.434660e+01	-2.647954e+02
2.930000e-06	-2.113043e-06	-4.108203e-09	-1.460222e+01	-2.704036e+02
2.940000e-06	-2.149013e-06	-4.186664e-09	-1.485079e+01	-2.755941e+02
