# Temperatura_=_21.04
# Concentracion g/m^3_=_13400.0
# C_Vs_to_Am_M_A/Vsm_=_65563218390.804596
# pendiente_HvsI_1/m_=_3716.3
# ordenada_HvsI_A/m_=_1297.0
# frecuencia_Hz_=_300841.6283487258

Tiempo_(s)	Campo_(V.s)	Magnetizacion_(V.s)	Campo_(kA/m)	Magnetizacion_(A/m)
0.000000e+00	-2.861237e-06	-5.070136e-09	-1.980567e+01	-3.323678e+02
1.000000e-08	-2.860698e-06	-5.067552e-09	-1.980195e+01	-3.323653e+02
2.000000e-08	-2.859431e-06	-5.061677e-09	-1.979318e+01	-3.323128e+02
3.000000e-08	-2.857103e-06	-5.058791e-09	-1.977706e+01	-3.322110e+02
4.000000e-08	-2.853432e-06	-5.059255e-09	-1.975165e+01	-3.320577e+02
5.000000e-08	-2.848808e-06	-5.055411e-09	-1.971964e+01	-3.318491e+02
6.000000e-08	-2.843468e-06	-5.044309e-09	-1.968268e+01	-3.315809e+02
7.000000e-08	-2.837188e-06	-5.029925e-09	-1.963921e+01	-3.312506e+02
8.000000e-08	-2.829872e-06	-5.039018e-09	-1.958856e+01	-3.308576e+02
9.000000e-08	-2.821502e-06	-5.081706e-09	-1.953063e+01	-3.304026e+02
1.000000e-07	-2.811850e-06	-5.083341e-09	-1.946381e+01	-3.298868e+02
1.100000e-07	-2.800727e-06	-4.979002e-09	-1.938682e+01	-3.293109e+02
1.200000e-07	-2.788555e-06	-4.911024e-09	-1.930256e+01	-3.286745e+02
1.300000e-07	-2.775660e-06	-5.029773e-09	-1.921330e+01	-3.279771e+02
1.400000e-07	-2.761810e-06	-5.067881e-09	-1.911744e+01	-3.272197e+02
1.500000e-07	-2.747019e-06	-4.904807e-09	-1.901505e+01	-3.264060e+02
1.600000e-07	-2.731258e-06	-4.941115e-09	-1.890595e+01	-3.255439e+02
1.700000e-07	-2.713998e-06	-5.089129e-09	-1.878648e+01	-3.246439e+02
1.800000e-07	-2.695527e-06	-4.977476e-09	-1.865862e+01	-3.237175e+02
1.900000e-07	-2.676516e-06	-4.862670e-09	-1.852703e+01	-3.227736e+02
2.000000e-07	-2.656705e-06	-4.980632e-09	-1.838989e+01	-3.218154e+02
2.100000e-07	-2.635950e-06	-4.941202e-09	-1.824622e+01	-3.208391e+02
2.200000e-07	-2.614501e-06	-4.813090e-09	-1.809776e+01	-3.198341e+02
2.300000e-07	-2.592246e-06	-4.945466e-09	-1.794370e+01	-3.187851e+02
2.400000e-07	-2.568983e-06	-4.959339e-09	-1.778267e+01	-3.176761e+02
2.500000e-07	-2.544852e-06	-4.797290e-09	-1.761564e+01	-3.164941e+02
2.600000e-07	-2.519924e-06	-4.811825e-09	-1.744309e+01	-3.152313e+02
2.700000e-07	-2.494060e-06	-4.841794e-09	-1.726405e+01	-3.138866e+02
2.800000e-07	-2.467123e-06	-4.768547e-09	-1.707759e+01	-3.124633e+02
2.900000e-07	-2.439070e-06	-4.760378e-09	-1.688341e+01	-3.109677e+02
3.000000e-07	-2.410069e-06	-4.753325e-09	-1.668266e+01	-3.094056e+02
3.100000e-07	-2.380341e-06	-4.739430e-09	-1.647688e+01	-3.077811e+02
3.200000e-07	-2.349943e-06	-4.731740e-09	-1.626646e+01	-3.060961e+02
3.300000e-07	-2.318786e-06	-4.671183e-09	-1.605079e+01	-3.043508e+02
3.400000e-07	-2.286842e-06	-4.628105e-09	-1.582968e+01	-3.025457e+02
3.500000e-07	-2.254258e-06	-4.628983e-09	-1.560412e+01	-3.006823e+02
3.600000e-07	-2.221074e-06	-4.590493e-09	-1.537443e+01	-2.987637e+02
3.700000e-07	-2.186929e-06	-4.570733e-09	-1.513807e+01	-2.967937e+02
3.800000e-07	-2.151539e-06	-4.562402e-09	-1.489310e+01	-2.947752e+02
3.900000e-07	-2.115222e-06	-4.492876e-09	-1.464171e+01	-2.927092e+02
4.000000e-07	-2.078337e-06	-4.476907e-09	-1.438639e+01	-2.905941e+02
4.100000e-07	-2.040795e-06	-4.466547e-09	-1.412652e+01	-2.884271e+02
4.200000e-07	-2.002520e-06	-4.394091e-09	-1.386158e+01	-2.862053e+02
4.300000e-07	-1.963610e-06	-4.345878e-09	-1.359224e+01	-2.839281e+02
4.400000e-07	-1.923964e-06	-4.337957e-09	-1.331781e+01	-2.815981e+02
4.500000e-07	-1.883659e-06	-4.303929e-09	-1.303881e+01	-2.792202e+02
4.600000e-07	-1.842979e-06	-4.262828e-09	-1.275723e+01	-2.767999e+02
4.700000e-07	-1.801862e-06	-4.222613e-09	-1.247261e+01	-2.743404e+02
4.800000e-07	-1.759861e-06	-4.174685e-09	-1.218188e+01	-2.718396e+02
4.900000e-07	-1.716669e-06	-4.138268e-09	-1.188290e+01	-2.692899e+02
5.000000e-07	-1.672571e-06	-4.103420e-09	-1.157765e+01	-2.666794e+02
5.100000e-07	-1.627994e-06	-4.061631e-09	-1.126909e+01	-2.639951e+02
5.200000e-07	-1.583082e-06	-4.009928e-09	-1.095820e+01	-2.612274e+02
5.300000e-07	-1.537781e-06	-3.974152e-09	-1.064462e+01	-2.583736e+02
5.400000e-07	-1.491882e-06	-3.937293e-09	-1.032691e+01	-2.554388e+02
5.500000e-07	-1.445375e-06	-3.886043e-09	-1.000499e+01	-2.524347e+02
5.600000e-07	-1.398385e-06	-3.828591e-09	-9.679714e+00	-2.493749e+02
5.700000e-07	-1.350840e-06	-3.783099e-09	-9.350608e+00	-2.462698e+02
5.800000e-07	-1.302761e-06	-3.745961e-09	-9.017796e+00	-2.431224e+02
5.900000e-07	-1.254348e-06	-3.699684e-09	-8.682683e+00	-2.399262e+02
6.000000e-07	-1.205645e-06	-3.646811e-09	-8.345553e+00	-2.366676e+02
6.100000e-07	-1.156507e-06	-3.589407e-09	-8.005419e+00	-2.333296e+02
6.200000e-07	-1.106758e-06	-3.535330e-09	-7.661056e+00	-2.298984e+02
6.300000e-07	-1.056262e-06	-3.479964e-09	-7.311515e+00	-2.263677e+02
6.400000e-07	-1.005215e-06	-3.423447e-09	-6.958167e+00	-2.227415e+02
6.500000e-07	-9.537154e-07	-3.364553e-09	-6.601682e+00	-2.190322e+02
6.600000e-07	-9.017108e-07	-3.311566e-09	-6.241703e+00	-2.152561e+02
6.700000e-07	-8.493948e-07	-3.259573e-09	-5.879568e+00	-2.114276e+02
6.800000e-07	-7.968715e-07	-3.198431e-09	-5.515999e+00	-2.075536e+02
6.900000e-07	-7.440788e-07	-3.131638e-09	-5.150564e+00	-2.036316e+02
7.000000e-07	-6.909888e-07	-3.066043e-09	-4.783071e+00	-1.996501e+02
7.100000e-07	-6.376805e-07	-3.006898e-09	-4.414067e+00	-1.955932e+02
7.200000e-07	-5.841618e-07	-2.943578e-09	-4.043607e+00	-1.914453e+02
7.300000e-07	-5.303762e-07	-2.875602e-09	-3.671299e+00	-1.871961e+02
7.400000e-07	-4.763953e-07	-2.805234e-09	-3.297640e+00	-1.828425e+02
7.500000e-07	-4.222231e-07	-2.736719e-09	-2.922657e+00	-1.783877e+02
7.600000e-07	-3.678791e-07	-2.668264e-09	-2.546484e+00	-1.738374e+02
7.700000e-07	-3.134492e-07	-2.594925e-09	-2.169717e+00	-1.691949e+02
7.800000e-07	-2.589777e-07	-2.518500e-09	-1.792661e+00	-1.644580e+02
7.900000e-07	-2.044575e-07	-2.443376e-09	-1.415268e+00	-1.596171e+02
8.000000e-07	-1.498730e-07	-2.371189e-09	-1.037431e+00	-1.546576e+02
8.100000e-07	-9.528006e-08	-2.293872e-09	-6.595350e-01	-1.495635e+02
8.200000e-07	-4.064718e-08	-2.210282e-09	-2.813625e-01	-1.443221e+02
8.300000e-07	1.403630e-08	-2.123293e-09	9.716024e-02	-1.389269e+02
8.400000e-07	6.873529e-08	-2.037325e-09	4.757903e-01	-1.333782e+02
8.500000e-07	1.234156e-07	-1.951800e-09	8.542910e-01	-1.276812e+02
8.600000e-07	1.780454e-07	-1.864285e-09	1.232442e+00	-1.218411e+02
8.700000e-07	2.326292e-07	-1.773953e-09	1.610275e+00	-1.158587e+02
8.800000e-07	2.871595e-07	-1.683327e-09	1.987738e+00	-1.097276e+02
8.900000e-07	3.416043e-07	-1.589704e-09	2.364608e+00	-1.034331e+02
9.000000e-07	3.959365e-07	-1.485267e-09	2.740699e+00	-9.695436e+01
9.100000e-07	4.501105e-07	-1.375835e-09	3.115696e+00	-9.026836e+01
9.200000e-07	5.041017e-07	-1.267990e-09	3.489426e+00	-8.335362e+01
9.300000e-07	5.579287e-07	-1.161569e-09	3.862020e+00	-7.619287e+01
9.400000e-07	6.115306e-07	-1.050006e-09	4.233056e+00	-6.877350e+01
9.500000e-07	6.648110e-07	-9.331474e-10	4.601866e+00	-6.108582e+01
9.600000e-07	7.177885e-07	-8.124384e-10	4.968581e+00	-5.312011e+01
9.700000e-07	7.705351e-07	-6.869759e-10	5.333696e+00	-4.486370e+01
9.800000e-07	8.231300e-07	-5.553195e-10	5.697762e+00	-3.629935e+01
9.900000e-07	8.755492e-07	-4.158966e-10	6.060611e+00	-2.740549e+01
1.000000e-06	9.276187e-07	-2.715188e-10	6.421039e+00	-1.815805e+01
1.010000e-06	9.791457e-07	-1.225090e-10	6.777713e+00	-8.533324e+00
1.020000e-06	1.030047e-06	3.129631e-11	7.130054e+00	1.489260e+00
1.030000e-06	1.080271e-06	1.919580e-10	7.477709e+00	1.192484e+01
1.040000e-06	1.129827e-06	3.583145e-10	7.820739e+00	2.278149e+01
1.050000e-06	1.178892e-06	5.293177e-10	8.160368e+00	3.405867e+01
1.060000e-06	1.227666e-06	7.059687e-10	8.497985e+00	4.574511e+01
1.070000e-06	1.276224e-06	8.905987e-10	8.834108e+00	5.781577e+01
1.080000e-06	1.324478e-06	1.082095e-09	9.168123e+00	7.022820e+01
1.090000e-06	1.372209e-06	1.275056e-09	9.498525e+00	8.291929e+01
1.100000e-06	1.419360e-06	1.469973e-09	9.824905e+00	9.580390e+01
1.110000e-06	1.465999e-06	1.667903e-09	1.014774e+01	1.087768e+02
1.120000e-06	1.512118e-06	1.864732e-09	1.046698e+01	1.217182e+02
1.130000e-06	1.557646e-06	2.053860e-09	1.078213e+01	1.345030e+02
1.140000e-06	1.602669e-06	2.240633e-09	1.109379e+01	1.470108e+02
1.150000e-06	1.647389e-06	2.428510e-09	1.140334e+01	1.591359e+02
1.160000e-06	1.691776e-06	2.610765e-09	1.171059e+01	1.707942e+02
1.170000e-06	1.735594e-06	2.780373e-09	1.201390e+01	1.819249e+02
1.180000e-06	1.778505e-06	2.936279e-09	1.231093e+01	1.924894e+02
1.190000e-06	1.820342e-06	3.084907e-09	1.260053e+01	2.024663e+02
1.200000e-06	1.861371e-06	3.229063e-09	1.288453e+01	2.118458e+02
1.210000e-06	1.901912e-06	3.365667e-09	1.316516e+01	2.206255e+02
1.220000e-06	1.941918e-06	3.489101e-09	1.344209e+01	2.288093e+02
1.230000e-06	1.981254e-06	3.601731e-09	1.371438e+01	2.364083e+02
1.240000e-06	2.019938e-06	3.708074e-09	1.398215e+01	2.434436e+02
1.250000e-06	2.057931e-06	3.807310e-09	1.424514e+01	2.499481e+02
1.260000e-06	2.095205e-06	3.896748e-09	1.450315e+01	2.559666e+02
1.270000e-06	2.131960e-06	3.978690e-09	1.475757e+01	2.615521e+02
1.280000e-06	2.168205e-06	4.058606e-09	1.500846e+01	2.667596e+02
1.290000e-06	2.203588e-06	4.137638e-09	1.525339e+01	2.716389e+02
1.300000e-06	2.237814e-06	4.209876e-09	1.549030e+01	2.762284e+02
1.310000e-06	2.271025e-06	4.272000e-09	1.572019e+01	2.805524e+02
1.320000e-06	2.303569e-06	4.328904e-09	1.594546e+01	2.846217e+02
1.330000e-06	2.335426e-06	4.385405e-09	1.616598e+01	2.884384e+02
1.340000e-06	2.366501e-06	4.439623e-09	1.638108e+01	2.920024e+02
1.350000e-06	2.396815e-06	4.487561e-09	1.659091e+01	2.953175e+02
1.360000e-06	2.426302e-06	4.531477e-09	1.679502e+01	2.983944e+02
1.370000e-06	2.455100e-06	4.575218e-09	1.699437e+01	3.012514e+02
1.380000e-06	2.483249e-06	4.616909e-09	1.718922e+01	3.039111e+02
1.390000e-06	2.510297e-06	4.652078e-09	1.737645e+01	3.063959e+02
1.400000e-06	2.536037e-06	4.682186e-09	1.755462e+01	3.087235e+02
1.410000e-06	2.560830e-06	4.712122e-09	1.772624e+01	3.109047e+02
1.420000e-06	2.584805e-06	4.744152e-09	1.789219e+01	3.129441e+02
1.430000e-06	2.607890e-06	4.775638e-09	1.805199e+01	3.148429e+02
1.440000e-06	2.630119e-06	4.801849e-09	1.820586e+01	3.166027e+02
1.450000e-06	2.651497e-06	4.823617e-09	1.835384e+01	3.182289e+02
1.460000e-06	2.672144e-06	4.844426e-09	1.849676e+01	3.197322e+02
1.470000e-06	2.692001e-06	4.863911e-09	1.863421e+01	3.211269e+02
1.480000e-06	2.710844e-06	4.881482e-09	1.876464e+01	3.224279e+02
1.490000e-06	2.728709e-06	4.899534e-09	1.888830e+01	3.236477e+02
1.500000e-06	2.745631e-06	4.918691e-09	1.900545e+01	3.247933e+02
1.510000e-06	2.761438e-06	4.938017e-09	1.911486e+01	3.258656e+02
1.520000e-06	2.776126e-06	4.955818e-09	1.921653e+01	3.268617e+02
1.530000e-06	2.789761e-06	4.969896e-09	1.931091e+01	3.277773e+02
1.540000e-06	2.802426e-06	4.980454e-09	1.939858e+01	3.286100e+02
1.550000e-06	2.814011e-06	4.988516e-09	1.947878e+01	3.293618e+02
1.560000e-06	2.824239e-06	4.995965e-09	1.954958e+01	3.300386e+02
1.570000e-06	2.833316e-06	5.005901e-09	1.961241e+01	3.306488e+02
1.580000e-06	2.841497e-06	5.018470e-09	1.966904e+01	3.312003e+02
1.590000e-06	2.848729e-06	5.030702e-09	1.971910e+01	3.316979e+02
1.600000e-06	2.854952e-06	5.040343e-09	1.976217e+01	3.321421e+02
1.610000e-06	2.860260e-06	5.046602e-09	1.979891e+01	3.325296e+02
1.620000e-06	2.864777e-06	5.050238e-09	1.983018e+01	3.328550e+02
1.630000e-06	2.868292e-06	5.053235e-09	1.985451e+01	3.331140e+02
1.640000e-06	2.870478e-06	5.056143e-09	1.986964e+01	3.333050e+02
1.650000e-06	2.871543e-06	5.058048e-09	1.987701e+01	3.334301e+02
1.660000e-06	2.871758e-06	5.059526e-09	1.987850e+01	3.334941e+02
1.670000e-06	2.871058e-06	5.060825e-09	1.987365e+01	3.335030e+02
1.680000e-06	2.869409e-06	5.061431e-09	1.986224e+01	3.334611e+02
1.690000e-06	2.866858e-06	5.062556e-09	1.984459e+01	3.333700e+02
1.700000e-06	2.863594e-06	5.061834e-09	1.982199e+01	3.332282e+02
1.710000e-06	2.859559e-06	5.057906e-09	1.979406e+01	3.330319e+02
1.720000e-06	2.854299e-06	5.055618e-09	1.975765e+01	3.327769e+02
1.730000e-06	2.847835e-06	5.062263e-09	1.971291e+01	3.324602e+02
1.740000e-06	2.840575e-06	5.039078e-09	1.966265e+01	3.320807e+02
1.750000e-06	2.832344e-06	4.975504e-09	1.960567e+01	3.316390e+02
1.760000e-06	2.822545e-06	4.984734e-09	1.953784e+01	3.311363e+02
1.770000e-06	2.811232e-06	5.079342e-09	1.945954e+01	3.305734e+02
1.780000e-06	2.799431e-06	5.069932e-09	1.937785e+01	3.299501e+02
1.790000e-06	2.787536e-06	4.945847e-09	1.929551e+01	3.292659e+02
1.800000e-06	2.774360e-06	4.931717e-09	1.920431e+01	3.285212e+02
1.810000e-06	2.759388e-06	5.046985e-09	1.910067e+01	3.277192e+02
1.820000e-06	2.743696e-06	4.949111e-09	1.899205e+01	3.268668e+02
1.830000e-06	2.727479e-06	4.881904e-09	1.887979e+01	3.259741e+02
1.840000e-06	2.709864e-06	5.054117e-09	1.875786e+01	3.250526e+02
1.850000e-06	2.691080e-06	5.030527e-09	1.862784e+01	3.241120e+02
1.860000e-06	2.671772e-06	4.860539e-09	1.849419e+01	3.231571e+02
1.870000e-06	2.651442e-06	4.945218e-09	1.835346e+01	3.221855e+02
1.880000e-06	2.629767e-06	5.004448e-09	1.820342e+01	3.211879e+02
1.890000e-06	2.607223e-06	4.811832e-09	1.804737e+01	3.201498e+02
1.900000e-06	2.583715e-06	4.834336e-09	1.788465e+01	3.190551e+02
1.910000e-06	2.559198e-06	4.963370e-09	1.771494e+01	3.178897e+02
1.920000e-06	2.534077e-06	4.856417e-09	1.754105e+01	3.166447e+02
1.930000e-06	2.508140e-06	4.805349e-09	1.736152e+01	3.153174e+02
1.940000e-06	2.481314e-06	4.842276e-09	1.717583e+01	3.139106e+02
1.950000e-06	2.453874e-06	4.770794e-09	1.698588e+01	3.124301e+02
1.960000e-06	2.425386e-06	4.763569e-09	1.678868e+01	3.108819e+02
1.970000e-06	2.395539e-06	4.734117e-09	1.658208e+01	3.092707e+02
1.980000e-06	2.364783e-06	4.687479e-09	1.636919e+01	3.075987e+02
1.990000e-06	2.333365e-06	4.728921e-09	1.615171e+01	3.058665e+02
2.000000e-06	2.301218e-06	4.677668e-09	1.592919e+01	3.040742e+02
2.010000e-06	2.268292e-06	4.611222e-09	1.570127e+01	3.022232e+02
2.020000e-06	2.234532e-06	4.627908e-09	1.546758e+01	3.003163e+02
2.030000e-06	2.200111e-06	4.554426e-09	1.522932e+01	2.983571e+02
2.040000e-06	2.165116e-06	4.511546e-09	1.498708e+01	2.963490e+02
2.050000e-06	2.129344e-06	4.534581e-09	1.473946e+01	2.942933e+02
2.060000e-06	2.092715e-06	4.455964e-09	1.448591e+01	2.921891e+02
2.070000e-06	2.055152e-06	4.425009e-09	1.422590e+01	2.900335e+02
2.080000e-06	2.016599e-06	4.432391e-09	1.395904e+01	2.878237e+02
2.090000e-06	1.977331e-06	4.370724e-09	1.368722e+01	2.855584e+02
2.100000e-06	1.937501e-06	4.335778e-09	1.341151e+01	2.832395e+02
2.110000e-06	1.897071e-06	4.298619e-09	1.313166e+01	2.808715e+02
2.120000e-06	1.856044e-06	4.246894e-09	1.284766e+01	2.784601e+02
2.130000e-06	1.814389e-06	4.227963e-09	1.255933e+01	2.760090e+02
2.140000e-06	1.772139e-06	4.191711e-09	1.226686e+01	2.735176e+02
2.150000e-06	1.729323e-06	4.150884e-09	1.197049e+01	2.709795e+02
2.160000e-06	1.686101e-06	4.111092e-09	1.167130e+01	2.683832e+02
2.170000e-06	1.642436e-06	4.060155e-09	1.136906e+01	2.657158e+02
2.180000e-06	1.598120e-06	4.025352e-09	1.106229e+01	2.629666e+02
2.190000e-06	1.553138e-06	3.976196e-09	1.075093e+01	2.601312e+02
2.200000e-06	1.507560e-06	3.929400e-09	1.043543e+01	2.572131e+02
2.210000e-06	1.461570e-06	3.897335e-09	1.011708e+01	2.542229e+02
2.220000e-06	1.415198e-06	3.851288e-09	9.796093e+00	2.511740e+02
2.230000e-06	1.368303e-06	3.802109e-09	9.471483e+00	2.480782e+02
2.240000e-06	1.320801e-06	3.740503e-09	9.142673e+00	2.449402e+02
2.250000e-06	1.272659e-06	3.687626e-09	8.809428e+00	2.417555e+02
2.260000e-06	1.224007e-06	3.650556e-09	8.472658e+00	2.385118e+02
2.270000e-06	1.174923e-06	3.603691e-09	8.132896e+00	2.351923e+02
2.280000e-06	1.125389e-06	3.552651e-09	7.790015e+00	2.317820e+02
2.290000e-06	1.075444e-06	3.498099e-09	7.444296e+00	2.282728e+02
2.300000e-06	1.025073e-06	3.443210e-09	7.095622e+00	2.246664e+02
2.310000e-06	9.742681e-07	3.389700e-09	6.743950e+00	2.209737e+02
2.320000e-06	9.231636e-07	3.324400e-09	6.390201e+00	2.172107e+02
2.330000e-06	8.718254e-07	3.261268e-09	6.034834e+00	2.133926e+02
2.340000e-06	8.201622e-07	3.208853e-09	5.677218e+00	2.095283e+02
2.350000e-06	7.680950e-07	3.155490e-09	5.316805e+00	2.056174e+02
2.360000e-06	7.155314e-07	3.096962e-09	4.952956e+00	2.016501e+02
2.370000e-06	6.625271e-07	3.030035e-09	4.586058e+00	1.976109e+02
2.380000e-06	6.091461e-07	2.970119e-09	4.216550e+00	1.934837e+02
2.390000e-06	5.553489e-07	2.912472e-09	3.844163e+00	1.892568e+02
2.400000e-06	5.011950e-07	2.845814e-09	3.469306e+00	1.849256e+02
2.410000e-06	4.468155e-07	2.777720e-09	3.092887e+00	1.804922e+02
2.420000e-06	3.923296e-07	2.709811e-09	2.715732e+00	1.759620e+02
2.430000e-06	3.376786e-07	2.644734e-09	2.337434e+00	1.713394e+02
2.440000e-06	2.828641e-07	2.575297e-09	1.958004e+00	1.666233e+02
2.450000e-06	2.279933e-07	2.498194e-09	1.578185e+00	1.618059e+02
2.460000e-06	1.730660e-07	2.422024e-09	1.197975e+00	1.568733e+02
2.470000e-06	1.180916e-07	2.347573e-09	8.174381e-01	1.518095e+02
2.480000e-06	6.311018e-08	2.270020e-09	4.368529e-01	1.466005e+02
2.490000e-06	8.124706e-09	2.188593e-09	5.623976e-02	1.412386e+02
2.500000e-06	-4.687599e-08	2.104780e-09	-3.244788e-01	1.357226e+02
2.510000e-06	-1.018727e-07	2.020638e-09	-7.051695e-01	1.300570e+02
2.520000e-06	-1.568191e-07	1.934110e-09	-1.085512e+00	1.242474e+02
2.530000e-06	-2.117388e-07	1.841322e-09	-1.465670e+00	1.182959e+02
2.540000e-06	-2.666323e-07	1.745611e-09	-1.845647e+00	1.121978e+02
2.550000e-06	-3.214328e-07	1.650046e-09	-2.224979e+00	1.059399e+02
2.560000e-06	-3.761087e-07	1.556883e-09	-2.603450e+00	9.950274e+01
2.570000e-06	-4.306668e-07	1.458938e-09	-2.981105e+00	9.286320e+01
2.580000e-06	-4.851182e-07	1.352785e-09	-3.358021e+00	8.599921e+01
2.590000e-06	-5.393362e-07	1.245483e-09	-3.733322e+00	7.889250e+01
2.600000e-06	-5.931388e-07	1.136231e-09	-4.105747e+00	7.152954e+01
2.610000e-06	-6.465285e-07	1.020380e-09	-4.475314e+00	6.390025e+01
2.620000e-06	-6.995051e-07	8.964373e-10	-4.842021e+00	5.599516e+01
2.630000e-06	-7.519972e-07	7.707791e-10	-5.205375e+00	4.780245e+01
2.640000e-06	-8.040552e-07	6.442268e-10	-5.565724e+00	3.930589e+01
2.650000e-06	-8.557502e-07	5.121244e-10	-5.923560e+00	3.048474e+01
2.660000e-06	-9.071338e-07	3.725286e-10	-6.279241e+00	2.131525e+01
2.670000e-06	-9.582547e-07	2.280444e-10	-6.633104e+00	1.177336e+01
2.680000e-06	-1.009071e-06	8.042328e-11	-6.984860e+00	1.837640e+00
2.690000e-06	-1.059542e-06	-7.501591e-11	-7.334218e+00	-8.508379e+00
2.700000e-06	-1.109594e-06	-2.406875e-10	-7.680681e+00	-1.927441e+01
2.710000e-06	-1.159149e-06	-4.132851e-10	-8.023708e+00	-3.046190e+01
2.720000e-06	-1.208264e-06	-5.892677e-10	-8.363687e+00	-4.206210e+01
2.730000e-06	-1.256892e-06	-7.697799e-10	-8.700292e+00	-5.405323e+01
2.740000e-06	-1.304910e-06	-9.574290e-10	-9.032676e+00	-6.639688e+01
2.750000e-06	-1.352058e-06	-1.152862e-09	-9.359035e+00	-7.903456e+01
2.760000e-06	-1.398399e-06	-1.350566e-09	-9.679809e+00	-9.188581e+01
2.770000e-06	-1.444290e-06	-1.548096e-09	-9.997474e+00	-1.048494e+02
2.780000e-06	-1.489838e-06	-1.747383e-09	-1.031276e+01	-1.178079e+02
2.790000e-06	-1.535098e-06	-1.946722e-09	-1.062605e+01	-1.306366e+02
2.800000e-06	-1.579968e-06	-2.140610e-09	-1.093664e+01	-1.432131e+02
2.810000e-06	-1.624286e-06	-2.326575e-09	-1.124341e+01	-1.554281e+02
2.820000e-06	-1.668000e-06	-2.507993e-09	-1.154601e+01	-1.671921e+02
2.830000e-06	-1.711255e-06	-2.682316e-09	-1.184542e+01	-1.784397e+02
2.840000e-06	-1.754152e-06	-2.845621e-09	-1.214236e+01	-1.891278e+02
2.850000e-06	-1.796498e-06	-2.998987e-09	-1.243548e+01	-1.992317e+02
2.860000e-06	-1.838217e-06	-3.145133e-09	-1.272426e+01	-2.087394e+02
2.870000e-06	-1.879379e-06	-3.283673e-09	-1.300919e+01	-2.176474e+02
2.880000e-06	-1.919895e-06	-3.413678e-09	-1.328964e+01	-2.259581e+02
2.890000e-06	-1.959695e-06	-3.535265e-09	-1.356514e+01	-2.336809e+02
2.900000e-06	-1.998956e-06	-3.647318e-09	-1.383691e+01	-2.408345e+02
2.910000e-06	-2.037734e-06	-3.749248e-09	-1.410534e+01	-2.474493e+02
2.920000e-06	-2.075708e-06	-3.842448e-09	-1.436819e+01	-2.535676e+02
2.930000e-06	-2.112572e-06	-3.928680e-09	-1.462336e+01	-2.592411e+02
2.940000e-06	-2.148414e-06	-4.009214e-09	-1.487147e+01	-2.645249e+02
