# Temperatura_=_18.4
# Concentracion g/m^3_=_13400.0
# C_Vs_to_Am_M_A/Vsm_=_65563218390.804596
# pendiente_HvsI_1/m_=_3716.3
# ordenada_HvsI_A/m_=_1297.0
# frecuencia_Hz_=_300846.7715397155

Tiempo_(s)	Campo_(V.s)	Magnetizacion_(V.s)	Campo_(kA/m)	Magnetizacion_(A/m)
0.000000e+00	-2.857232e-06	-4.957325e-09	-1.980201e+01	-3.246673e+02
1.000000e-08	-2.856171e-06	-4.953058e-09	-1.979465e+01	-3.247152e+02
2.000000e-08	-2.854097e-06	-4.948787e-09	-1.978029e+01	-3.246896e+02
3.000000e-08	-2.850789e-06	-4.946374e-09	-1.975736e+01	-3.245821e+02
4.000000e-08	-2.846474e-06	-4.946577e-09	-1.972745e+01	-3.243895e+02
5.000000e-08	-2.841354e-06	-4.946684e-09	-1.969197e+01	-3.241160e+02
6.000000e-08	-2.835372e-06	-4.949437e-09	-1.965051e+01	-3.237734e+02
7.000000e-08	-2.828446e-06	-4.955784e-09	-1.960251e+01	-3.233777e+02
8.000000e-08	-2.820484e-06	-4.924936e-09	-1.954733e+01	-3.229452e+02
9.000000e-08	-2.811291e-06	-4.879650e-09	-1.948362e+01	-3.224869e+02
1.000000e-07	-2.800669e-06	-4.895037e-09	-1.941000e+01	-3.220055e+02
1.100000e-07	-2.788871e-06	-4.966515e-09	-1.932823e+01	-3.214946e+02
1.200000e-07	-2.776277e-06	-4.916915e-09	-1.924095e+01	-3.209412e+02
1.300000e-07	-2.762817e-06	-4.803939e-09	-1.914767e+01	-3.203316e+02
1.400000e-07	-2.748403e-06	-4.899328e-09	-1.904777e+01	-3.196567e+02
1.500000e-07	-2.733012e-06	-4.948466e-09	-1.894110e+01	-3.189164e+02
1.600000e-07	-2.716261e-06	-4.818660e-09	-1.882501e+01	-3.181197e+02
1.700000e-07	-2.698225e-06	-4.823344e-09	-1.870001e+01	-3.172810e+02
1.800000e-07	-2.679472e-06	-4.915916e-09	-1.857005e+01	-3.164134e+02
1.900000e-07	-2.660026e-06	-4.813888e-09	-1.843528e+01	-3.155222e+02
2.000000e-07	-2.639676e-06	-4.759676e-09	-1.829424e+01	-3.146006e+02
2.100000e-07	-2.618499e-06	-4.867738e-09	-1.814747e+01	-3.136303e+02
2.200000e-07	-2.596505e-06	-4.794545e-09	-1.799504e+01	-3.125863e+02
2.300000e-07	-2.573574e-06	-4.712469e-09	-1.783612e+01	-3.114460e+02
2.400000e-07	-2.549702e-06	-4.786597e-09	-1.767068e+01	-3.101969e+02
2.500000e-07	-2.525016e-06	-4.740104e-09	-1.749959e+01	-3.088414e+02
2.600000e-07	-2.499538e-06	-4.669626e-09	-1.732302e+01	-3.073968e+02
2.700000e-07	-2.473033e-06	-4.708138e-09	-1.713932e+01	-3.058883e+02
2.800000e-07	-2.445401e-06	-4.652174e-09	-1.694782e+01	-3.043402e+02
2.900000e-07	-2.416828e-06	-4.617646e-09	-1.674980e+01	-3.027666e+02
3.000000e-07	-2.387477e-06	-4.637461e-09	-1.654638e+01	-3.011662e+02
3.100000e-07	-2.357383e-06	-4.575467e-09	-1.633782e+01	-2.995239e+02
3.200000e-07	-2.326539e-06	-4.549749e-09	-1.612405e+01	-2.978172e+02
3.300000e-07	-2.294904e-06	-4.569057e-09	-1.590480e+01	-2.960265e+02
3.400000e-07	-2.262546e-06	-4.496889e-09	-1.568055e+01	-2.941444e+02
3.500000e-07	-2.229580e-06	-4.462046e-09	-1.545208e+01	-2.921795e+02
3.600000e-07	-2.195801e-06	-4.478759e-09	-1.521797e+01	-2.901542e+02
3.700000e-07	-2.160879e-06	-4.408247e-09	-1.497595e+01	-2.880961e+02
3.800000e-07	-2.124915e-06	-4.382788e-09	-1.472669e+01	-2.860267e+02
3.900000e-07	-2.088289e-06	-4.389649e-09	-1.447286e+01	-2.839523e+02
4.000000e-07	-2.051064e-06	-4.330917e-09	-1.421487e+01	-2.818606e+02
4.100000e-07	-2.013078e-06	-4.278093e-09	-1.395161e+01	-2.797248e+02
4.200000e-07	-1.974331e-06	-4.267731e-09	-1.368308e+01	-2.775138e+02
4.300000e-07	-1.934894e-06	-4.226887e-09	-1.340976e+01	-2.752048e+02
4.400000e-07	-1.894841e-06	-4.184155e-09	-1.313217e+01	-2.727934e+02
4.500000e-07	-1.854359e-06	-4.154600e-09	-1.285161e+01	-2.702958e+02
4.600000e-07	-1.813483e-06	-4.109486e-09	-1.256832e+01	-2.677436e+02
4.700000e-07	-1.771853e-06	-4.072273e-09	-1.227981e+01	-2.651714e+02
4.800000e-07	-1.729148e-06	-4.033754e-09	-1.198384e+01	-2.626033e+02
4.900000e-07	-1.685508e-06	-3.986890e-09	-1.168139e+01	-2.600422e+02
5.000000e-07	-1.641271e-06	-3.943508e-09	-1.137481e+01	-2.574679e+02
5.100000e-07	-1.596616e-06	-3.914907e-09	-1.106533e+01	-2.548437e+02
5.200000e-07	-1.551520e-06	-3.870317e-09	-1.075279e+01	-2.521299e+02
5.300000e-07	-1.505856e-06	-3.828398e-09	-1.043632e+01	-2.492986e+02
5.400000e-07	-1.459569e-06	-3.783119e-09	-1.011553e+01	-2.463444e+02
5.500000e-07	-1.412724e-06	-3.727384e-09	-9.790868e+00	-2.432858e+02
5.600000e-07	-1.365416e-06	-3.684728e-09	-9.463000e+00	-2.401582e+02
5.700000e-07	-1.317647e-06	-3.640263e-09	-9.131938e+00	-2.369985e+02
5.800000e-07	-1.269426e-06	-3.586719e-09	-8.797738e+00	-2.338307e+02
5.900000e-07	-1.220829e-06	-3.538948e-09	-8.460943e+00	-2.306551e+02
6.000000e-07	-1.171858e-06	-3.496050e-09	-8.121548e+00	-2.274471e+02
6.100000e-07	-1.122367e-06	-3.437591e-09	-7.778547e+00	-2.241669e+02
6.200000e-07	-1.072278e-06	-3.382461e-09	-7.431409e+00	-2.207738e+02
6.300000e-07	-1.021588e-06	-3.330931e-09	-7.080103e+00	-2.172429e+02
6.400000e-07	-9.703073e-07	-3.277041e-09	-6.724702e+00	-2.135743e+02
6.500000e-07	-9.185072e-07	-3.221167e-09	-6.365703e+00	-2.097938e+02
6.600000e-07	-8.663258e-07	-3.161561e-09	-6.004060e+00	-2.059428e+02
6.700000e-07	-8.139185e-07	-3.100870e-09	-5.640852e+00	-2.020622e+02
6.800000e-07	-7.612783e-07	-3.039092e-09	-5.276030e+00	-1.981759e+02
6.900000e-07	-7.083828e-07	-2.979108e-09	-4.909439e+00	-1.942816e+02
7.000000e-07	-6.552212e-07	-2.916718e-09	-4.541002e+00	-1.903509e+02
7.100000e-07	-6.017882e-07	-2.858364e-09	-4.170686e+00	-1.863401e+02
7.200000e-07	-5.481403e-07	-2.796839e-09	-3.798880e+00	-1.822059e+02
7.300000e-07	-4.943043e-07	-2.728679e-09	-3.425770e+00	-1.779219e+02
7.400000e-07	-4.402402e-07	-2.655493e-09	-3.051079e+00	-1.734872e+02
7.500000e-07	-3.860158e-07	-2.581838e-09	-2.675278e+00	-1.689254e+02
7.600000e-07	-3.317088e-07	-2.511449e-09	-2.298904e+00	-1.642736e+02
7.700000e-07	-2.773010e-07	-2.440423e-09	-1.921831e+00	-1.595658e+02
7.800000e-07	-2.228319e-07	-2.368192e-09	-1.544334e+00	-1.548176e+02
7.900000e-07	-1.683000e-07	-2.294788e-09	-1.166401e+00	-1.500185e+02
8.000000e-07	-1.137183e-07	-2.223031e-09	-7.881230e-01	-1.451335e+02
8.100000e-07	-5.914015e-08	-2.145519e-09	-4.098701e-01	-1.401150e+02
8.200000e-07	-4.553458e-09	-2.063170e-09	-3.155768e-02	-1.349188e+02
8.300000e-07	5.005123e-08	-1.977837e-09	3.468794e-01	-1.295190e+02
8.400000e-07	1.046773e-07	-1.890357e-09	7.254651e-01	-1.239154e+02
8.500000e-07	1.592751e-07	-1.802143e-09	1.103854e+00	-1.181305e+02
8.600000e-07	2.137894e-07	-1.713767e-09	1.481665e+00	-1.121979e+02
8.700000e-07	2.682102e-07	-1.625517e-09	1.858828e+00	-1.061467e+02
8.800000e-07	3.225621e-07	-1.533091e-09	2.235512e+00	-9.998749e+01
8.900000e-07	3.768364e-07	-1.435692e-09	2.611660e+00	-9.370614e+01
9.000000e-07	4.309729e-07	-1.333628e-09	2.986853e+00	-8.726676e+01
9.100000e-07	4.849574e-07	-1.231626e-09	3.360991e+00	-8.062297e+01
9.200000e-07	5.388146e-07	-1.127039e-09	3.734248e+00	-7.373240e+01
9.300000e-07	5.924237e-07	-1.017157e-09	4.105785e+00	-6.656880e+01
9.400000e-07	6.457279e-07	-9.009585e-10	4.475209e+00	-5.912684e+01
9.500000e-07	6.987792e-07	-7.810141e-10	4.842880e+00	-5.141805e+01
9.600000e-07	7.515780e-07	-6.611506e-10	5.208802e+00	-4.345981e+01
9.700000e-07	8.041306e-07	-5.393178e-10	5.573017e+00	-3.526194e+01
9.800000e-07	8.564213e-07	-4.113187e-10	5.935417e+00	-2.681651e+01
9.900000e-07	9.084342e-07	-2.753780e-10	6.295892e+00	-1.809504e+01
1.000000e-06	9.600347e-07	-1.352746e-10	6.653509e+00	-9.054171e+00
1.010000e-06	1.011135e-06	9.537495e-12	7.007659e+00	3.522628e-01
1.020000e-06	1.061689e-06	1.591878e-10	7.358021e+00	1.015929e+01
1.030000e-06	1.111607e-06	3.193808e-10	7.703980e+00	2.038005e+01
1.040000e-06	1.160881e-06	4.879817e-10	8.045471e+00	3.100166e+01
1.050000e-06	1.209682e-06	6.562800e-10	8.383683e+00	4.198856e+01
1.060000e-06	1.258180e-06	8.248377e-10	8.719800e+00	5.329096e+01
1.070000e-06	1.306353e-06	9.987920e-10	9.053663e+00	6.485438e+01
1.080000e-06	1.354120e-06	1.182280e-09	9.384713e+00	7.662608e+01
1.090000e-06	1.401386e-06	1.367950e-09	9.712286e+00	8.855596e+01
1.100000e-06	1.448102e-06	1.551188e-09	1.003605e+01	1.005919e+02
1.110000e-06	1.494314e-06	1.734114e-09	1.035633e+01	1.126725e+02
1.120000e-06	1.540044e-06	1.918396e-09	1.067326e+01	1.247212e+02
1.130000e-06	1.585256e-06	2.100206e-09	1.098660e+01	1.366446e+02
1.140000e-06	1.630044e-06	2.277397e-09	1.129700e+01	1.483382e+02
1.150000e-06	1.674478e-06	2.450086e-09	1.160495e+01	1.596966e+02
1.160000e-06	1.718428e-06	2.617830e-09	1.190954e+01	1.706265e+02
1.170000e-06	1.761599e-06	2.779188e-09	1.220874e+01	1.810570e+02
1.180000e-06	1.803787e-06	2.930204e-09	1.250113e+01	1.909453e+02
1.190000e-06	1.845106e-06	3.071688e-09	1.278749e+01	2.002743e+02
1.200000e-06	1.885792e-06	3.204919e-09	1.306946e+01	2.090465e+02
1.210000e-06	1.925956e-06	3.330048e-09	1.334782e+01	2.172737e+02
1.220000e-06	1.965512e-06	3.444094e-09	1.362196e+01	2.249698e+02
1.230000e-06	2.004395e-06	3.549172e-09	1.389144e+01	2.321472e+02
1.240000e-06	2.042584e-06	3.649104e-09	1.415610e+01	2.388184e+02
1.250000e-06	2.080037e-06	3.744277e-09	1.441567e+01	2.450013e+02
1.260000e-06	2.116882e-06	3.833027e-09	1.467103e+01	2.507247e+02
1.270000e-06	2.153227e-06	3.913702e-09	1.492291e+01	2.560307e+02
1.280000e-06	2.188900e-06	3.987426e-09	1.517014e+01	2.609723e+02
1.290000e-06	2.223578e-06	4.055213e-09	1.541048e+01	2.656058e+02
1.300000e-06	2.257151e-06	4.119059e-09	1.564316e+01	2.699809e+02
1.310000e-06	2.289892e-06	4.179619e-09	1.587007e+01	2.741317e+02
1.320000e-06	2.321947e-06	4.237909e-09	1.609222e+01	2.780718e+02
1.330000e-06	2.353247e-06	4.294566e-09	1.630915e+01	2.817961e+02
1.340000e-06	2.383760e-06	4.348830e-09	1.652062e+01	2.852879e+02
1.350000e-06	2.413449e-06	4.396733e-09	1.672638e+01	2.885298e+02
1.360000e-06	2.442373e-06	4.437675e-09	1.692684e+01	2.915138e+02
1.370000e-06	2.470630e-06	4.476773e-09	1.712267e+01	2.942478e+02
1.380000e-06	2.498059e-06	4.513340e-09	1.731277e+01	2.967557e+02
1.390000e-06	2.524331e-06	4.545892e-09	1.749484e+01	2.990731e+02
1.400000e-06	2.549456e-06	4.574776e-09	1.766897e+01	3.012379e+02
1.410000e-06	2.573655e-06	4.604006e-09	1.783668e+01	3.032820e+02
1.420000e-06	2.596997e-06	4.635844e-09	1.799845e+01	3.052249e+02
1.430000e-06	2.619514e-06	4.666335e-09	1.815451e+01	3.070726e+02
1.440000e-06	2.641166e-06	4.692623e-09	1.830457e+01	3.088203e+02
1.450000e-06	2.662005e-06	4.713913e-09	1.844899e+01	3.104588e+02
1.460000e-06	2.682098e-06	4.732642e-09	1.858824e+01	3.119806e+02
1.470000e-06	2.701273e-06	4.753270e-09	1.872114e+01	3.133848e+02
1.480000e-06	2.719423e-06	4.774854e-09	1.884692e+01	3.146782e+02
1.490000e-06	2.736611e-06	4.792479e-09	1.896605e+01	3.158737e+02
1.500000e-06	2.752735e-06	4.807327e-09	1.907779e+01	3.169864e+02
1.510000e-06	2.767702e-06	4.824645e-09	1.918153e+01	3.180291e+02
1.520000e-06	2.781660e-06	4.843500e-09	1.927826e+01	3.190100e+02
1.530000e-06	2.794693e-06	4.858177e-09	1.936859e+01	3.199308e+02
1.540000e-06	2.806662e-06	4.866319e-09	1.945154e+01	3.207890e+02
1.550000e-06	2.817331e-06	4.872625e-09	1.952548e+01	3.215791e+02
1.560000e-06	2.826783e-06	4.883574e-09	1.959099e+01	3.222962e+02
1.570000e-06	2.835253e-06	4.897873e-09	1.964968e+01	3.229372e+02
1.580000e-06	2.842784e-06	4.910305e-09	1.970188e+01	3.235024e+02
1.590000e-06	2.849335e-06	4.919037e-09	1.974728e+01	3.239951e+02
1.600000e-06	2.854930e-06	4.925707e-09	1.978606e+01	3.244208e+02
1.610000e-06	2.859688e-06	4.931764e-09	1.981903e+01	3.247865e+02
1.620000e-06	2.863599e-06	4.935820e-09	1.984614e+01	3.250989e+02
1.630000e-06	2.866338e-06	4.937761e-09	1.986512e+01	3.253636e+02
1.640000e-06	2.867799e-06	4.941065e-09	1.987525e+01	3.255831e+02
1.650000e-06	2.868269e-06	4.945981e-09	1.987850e+01	3.257563e+02
1.660000e-06	2.867854e-06	4.949966e-09	1.987563e+01	3.258776e+02
1.670000e-06	2.866528e-06	4.951129e-09	1.986644e+01	3.259379e+02
1.680000e-06	2.864325e-06	4.949273e-09	1.985117e+01	3.259265e+02
1.690000e-06	2.861354e-06	4.949423e-09	1.983058e+01	3.258344e+02
1.700000e-06	2.857592e-06	4.951009e-09	1.980451e+01	3.256572e+02
1.710000e-06	2.852743e-06	4.946908e-09	1.977090e+01	3.253980e+02
1.720000e-06	2.846684e-06	4.926424e-09	1.972891e+01	3.250669e+02
1.730000e-06	2.839642e-06	4.908491e-09	1.968010e+01	3.246798e+02
1.740000e-06	2.831657e-06	4.941846e-09	1.962476e+01	3.242532e+02
1.750000e-06	2.822338e-06	4.966815e-09	1.956018e+01	3.237994e+02
1.760000e-06	2.811530e-06	4.888984e-09	1.948528e+01	3.233228e+02
1.770000e-06	2.799905e-06	4.853442e-09	1.940471e+01	3.228183e+02
1.780000e-06	2.788057e-06	4.919657e-09	1.932260e+01	3.222739e+02
1.790000e-06	2.775401e-06	4.948103e-09	1.923489e+01	3.216756e+02
1.800000e-06	2.761166e-06	4.802033e-09	1.913623e+01	3.210130e+02
1.810000e-06	2.745771e-06	4.819798e-09	1.902953e+01	3.202843e+02
1.820000e-06	2.729750e-06	4.968285e-09	1.891850e+01	3.194971e+02
1.830000e-06	2.712659e-06	4.857214e-09	1.880005e+01	3.186651e+02
1.840000e-06	2.694287e-06	4.783746e-09	1.867272e+01	3.178023e+02
1.850000e-06	2.675175e-06	4.912488e-09	1.854027e+01	3.169159e+02
1.860000e-06	2.655331e-06	4.852657e-09	1.840274e+01	3.160012e+02
1.870000e-06	2.634232e-06	4.720083e-09	1.825651e+01	3.150416e+02
1.880000e-06	2.611945e-06	4.840886e-09	1.810205e+01	3.140130e+02
1.890000e-06	2.588763e-06	4.834778e-09	1.794139e+01	3.128916e+02
1.900000e-06	2.564694e-06	4.705864e-09	1.777458e+01	3.116625e+02
1.910000e-06	2.539869e-06	4.768480e-09	1.760253e+01	3.103255e+02
1.920000e-06	2.514242e-06	4.756885e-09	1.742492e+01	3.088954e+02
1.930000e-06	2.487675e-06	4.647339e-09	1.724080e+01	3.073967e+02
1.940000e-06	2.460364e-06	4.709843e-09	1.705152e+01	3.058547e+02
1.950000e-06	2.432225e-06	4.660544e-09	1.685651e+01	3.042856e+02
1.960000e-06	2.402899e-06	4.583928e-09	1.665326e+01	3.026911e+02
1.970000e-06	2.372499e-06	4.654784e-09	1.644257e+01	3.010582e+02
1.980000e-06	2.341356e-06	4.579337e-09	1.622674e+01	2.993650e+02
1.990000e-06	2.309516e-06	4.509341e-09	1.600607e+01	2.975907e+02
2.000000e-06	2.276917e-06	4.569631e-09	1.578015e+01	2.957251e+02
2.010000e-06	2.243495e-06	4.490406e-09	1.554852e+01	2.937741e+02
2.020000e-06	2.209317e-06	4.427188e-09	1.531164e+01	2.917579e+02
2.030000e-06	2.174483e-06	4.461233e-09	1.507023e+01	2.897041e+02
2.040000e-06	2.139017e-06	4.380221e-09	1.482443e+01	2.876360e+02
2.050000e-06	2.102900e-06	4.336889e-09	1.457412e+01	2.855633e+02
2.060000e-06	2.065853e-06	4.348855e-09	1.431737e+01	2.834767e+02
2.070000e-06	2.027632e-06	4.297110e-09	1.405248e+01	2.813515e+02
2.080000e-06	1.988555e-06	4.262712e-09	1.378166e+01	2.791563e+02
2.090000e-06	1.949003e-06	4.231979e-09	1.350754e+01	2.768661e+02
2.100000e-06	1.908897e-06	4.185939e-09	1.322959e+01	2.744727e+02
2.110000e-06	1.868106e-06	4.150018e-09	1.294689e+01	2.719889e+02
2.120000e-06	1.826669e-06	4.106508e-09	1.265971e+01	2.694441e+02
2.130000e-06	1.784658e-06	4.072981e-09	1.236855e+01	2.668737e+02
2.140000e-06	1.742080e-06	4.046187e-09	1.207346e+01	2.643043e+02
2.150000e-06	1.698991e-06	4.002294e-09	1.177483e+01	2.617431e+02
2.160000e-06	1.655468e-06	3.950435e-09	1.147320e+01	2.591739e+02
2.170000e-06	1.611393e-06	3.901537e-09	1.116774e+01	2.565620e+02
2.180000e-06	1.566653e-06	3.871969e-09	1.085767e+01	2.538672e+02
2.190000e-06	1.521302e-06	3.831404e-09	1.054337e+01	2.510583e+02
2.200000e-06	1.475453e-06	3.785651e-09	1.022561e+01	2.481257e+02
2.210000e-06	1.429205e-06	3.750888e-09	9.905088e+00	2.450839e+02
2.220000e-06	1.382521e-06	3.689404e-09	9.581545e+00	2.419660e+02
2.230000e-06	1.335242e-06	3.641399e-09	9.253877e+00	2.388101e+02
2.240000e-06	1.287378e-06	3.599377e-09	8.922155e+00	2.356434e+02
2.250000e-06	1.238970e-06	3.540483e-09	8.586668e+00	2.324706e+02
2.260000e-06	1.190055e-06	3.501532e-09	8.247662e+00	2.292715e+02
2.270000e-06	1.140757e-06	3.461804e-09	7.906001e+00	2.260077e+02
2.280000e-06	1.091087e-06	3.406684e-09	7.561763e+00	2.226376e+02
2.290000e-06	1.040945e-06	3.350379e-09	7.214260e+00	2.191324e+02
2.300000e-06	9.903058e-07	3.287387e-09	6.863302e+00	2.154875e+02
2.310000e-06	9.393496e-07	3.227700e-09	6.510151e+00	2.117246e+02
2.320000e-06	8.881498e-07	3.174476e-09	6.155311e+00	2.078834e+02
2.330000e-06	8.366754e-07	3.118904e-09	5.798568e+00	2.040059e+02
2.340000e-06	7.848587e-07	3.064685e-09	5.439454e+00	2.001203e+02
2.350000e-06	7.325689e-07	3.003704e-09	5.077060e+00	1.962292e+02
2.360000e-06	6.798018e-07	2.942430e-09	4.711358e+00	1.923084e+02
2.370000e-06	6.266086e-07	2.880776e-09	4.342703e+00	1.883157e+02
2.380000e-06	5.730308e-07	2.817836e-09	3.971383e+00	1.842065e+02
2.390000e-06	5.191285e-07	2.756549e-09	3.597813e+00	1.799504e+02
2.400000e-06	4.649786e-07	2.692338e-09	3.222528e+00	1.755419e+02
2.410000e-06	4.106254e-07	2.629821e-09	2.845834e+00	1.710006e+02
2.420000e-06	3.560548e-07	2.561443e-09	2.467634e+00	1.663625e+02
2.430000e-06	3.013047e-07	2.486506e-09	2.088189e+00	1.616632e+02
2.440000e-06	2.464884e-07	2.412161e-09	1.708285e+00	1.569225e+02
2.450000e-06	1.916163e-07	2.340165e-09	1.327995e+00	1.521349e+02
2.460000e-06	1.366875e-07	2.269489e-09	9.473112e-01	1.472689e+02
2.470000e-06	8.173972e-08	2.193504e-09	5.664961e-01	1.422781e+02
2.480000e-06	2.673392e-08	2.111411e-09	1.852791e-01	1.371166e+02
2.490000e-06	-2.830523e-08	2.029950e-09	-1.961691e-01	1.317543e+02
2.500000e-06	-8.335248e-08	1.949721e-09	-5.776733e-01	1.261864e+02
2.510000e-06	-1.383762e-07	1.864746e-09	-9.590145e-01	1.204319e+02
2.520000e-06	-1.933615e-07	1.773907e-09	-1.340089e+00	1.145235e+02
2.530000e-06	-2.483097e-07	1.679920e-09	-1.720907e+00	1.084924e+02
2.540000e-06	-3.031619e-07	1.587419e-09	-2.101060e+00	1.023531e+02
2.550000e-06	-3.578975e-07	1.494466e-09	-2.480404e+00	9.609608e+01
2.560000e-06	-4.124516e-07	1.396816e-09	-2.858491e+00	8.968857e+01
2.570000e-06	-4.667877e-07	1.293549e-09	-3.235066e+00	8.308505e+01
2.580000e-06	-5.209127e-07	1.187668e-09	-3.610179e+00	7.624141e+01
2.590000e-06	-5.747244e-07	1.082854e-09	-3.983120e+00	6.912792e+01
2.600000e-06	-6.280840e-07	9.752112e-10	-4.352929e+00	6.173555e+01
2.610000e-06	-6.809883e-07	8.604303e-10	-4.719581e+00	5.407349e+01
2.620000e-06	-7.334310e-07	7.375348e-10	-5.083034e+00	4.615905e+01
2.630000e-06	-7.854384e-07	6.111512e-10	-5.443471e+00	3.800432e+01
2.640000e-06	-8.371121e-07	4.819244e-10	-5.801595e+00	2.960498e+01
2.650000e-06	-8.884855e-07	3.488498e-10	-6.157638e+00	2.093605e+01
2.660000e-06	-9.396021e-07	2.107286e-10	-6.511901e+00	1.195606e+01
2.670000e-06	-9.905081e-07	6.862127e-11	-6.864704e+00	2.618333e+00
2.680000e-06	-1.041104e-06	-7.710437e-11	-7.215357e+00	-7.115111e+00
2.690000e-06	-1.091204e-06	-2.293895e-10	-7.562576e+00	-1.726182e+01
2.700000e-06	-1.140830e-06	-3.872963e-10	-7.906506e+00	-2.781354e+01
2.710000e-06	-1.190031e-06	-5.510263e-10	-8.247495e+00	-3.873822e+01
2.720000e-06	-1.238748e-06	-7.200628e-10	-8.585125e+00	-4.998789e+01
2.730000e-06	-1.286895e-06	-8.968850e-10	-8.918807e+00	-6.150830e+01
2.740000e-06	-1.334364e-06	-1.079139e-09	-9.247790e+00	-7.324617e+01
2.750000e-06	-1.381049e-06	-1.261578e-09	-9.571343e+00	-8.515111e+01
2.760000e-06	-1.427094e-06	-1.445553e-09	-9.890457e+00	-9.717189e+01
2.770000e-06	-1.472746e-06	-1.632383e-09	-1.020684e+01	-1.092493e+02
2.780000e-06	-1.518080e-06	-1.816363e-09	-1.052103e+01	-1.213097e+02
2.790000e-06	-1.563052e-06	-1.993403e-09	-1.083271e+01	-1.332626e+02
2.800000e-06	-1.607518e-06	-2.167702e-09	-1.114088e+01	-1.450047e+02
2.810000e-06	-1.651399e-06	-2.344332e-09	-1.144500e+01	-1.564300e+02
2.820000e-06	-1.694796e-06	-2.520512e-09	-1.174576e+01	-1.674419e+02
2.830000e-06	-1.737817e-06	-2.684629e-09	-1.204392e+01	-1.779653e+02
2.840000e-06	-1.780352e-06	-2.834674e-09	-1.233871e+01	-1.879519e+02
2.850000e-06	-1.822251e-06	-2.977021e-09	-1.262909e+01	-1.973808e+02
2.860000e-06	-1.863524e-06	-3.113872e-09	-1.291513e+01	-2.062513e+02
2.870000e-06	-1.904190e-06	-3.241094e-09	-1.319697e+01	-2.145744e+02
2.880000e-06	-1.944194e-06	-3.357190e-09	-1.347421e+01	-2.223640e+02
2.890000e-06	-1.983601e-06	-3.468666e-09	-1.374732e+01	-2.296328e+02
2.900000e-06	-2.022467e-06	-3.577764e-09	-1.401668e+01	-2.363930e+02
2.910000e-06	-2.060603e-06	-3.679833e-09	-1.428098e+01	-2.426610e+02
2.920000e-06	-2.097736e-06	-3.769405e-09	-1.453833e+01	-2.484634e+02
2.930000e-06	-2.133821e-06	-3.849135e-09	-1.478842e+01	-2.538399e+02
2.940000e-06	-2.169168e-06	-3.926264e-09	-1.503339e+01	-2.588421e+02
