# Temperatura_=_29.36
# Concentracion g/m^3_=_13400.0
# C_Vs_to_Am_M_A/Vsm_=_65563218390.804596
# pendiente_HvsI_1/m_=_3716.3
# ordenada_HvsI_A/m_=_1297.0
# frecuencia_Hz_=_300836.7302806159

Tiempo_(s)	Campo_(V.s)	Magnetizacion_(V.s)	Campo_(kA/m)	Magnetizacion_(A/m)
0.000000e+00	-2.861379e-06	-5.237628e-09	-1.980510e+01	-3.430744e+02
1.000000e-08	-2.860929e-06	-5.237870e-09	-1.980199e+01	-3.431217e+02
2.000000e-08	-2.859813e-06	-5.237055e-09	-1.979426e+01	-3.431207e+02
3.000000e-08	-2.857758e-06	-5.235269e-09	-1.978004e+01	-3.430515e+02
4.000000e-08	-2.854345e-06	-5.232887e-09	-1.975641e+01	-3.428955e+02
5.000000e-08	-2.849827e-06	-5.229034e-09	-1.972514e+01	-3.426429e+02
6.000000e-08	-2.844556e-06	-5.222120e-09	-1.968865e+01	-3.422970e+02
7.000000e-08	-2.838416e-06	-5.213378e-09	-1.964616e+01	-3.418737e+02
8.000000e-08	-2.831280e-06	-5.211784e-09	-1.959677e+01	-3.413959e+02
9.000000e-08	-2.823114e-06	-5.237561e-09	-1.954024e+01	-3.408855e+02
1.000000e-07	-2.813715e-06	-5.235682e-09	-1.947519e+01	-3.403557e+02
1.100000e-07	-2.802917e-06	-5.174487e-09	-1.940046e+01	-3.398074e+02
1.200000e-07	-2.791053e-06	-5.107029e-09	-1.931834e+01	-3.392300e+02
1.300000e-07	-2.778429e-06	-5.177148e-09	-1.923096e+01	-3.386074e+02
1.400000e-07	-2.764830e-06	-5.234455e-09	-1.913683e+01	-3.379254e+02
1.500000e-07	-2.750251e-06	-5.115209e-09	-1.903592e+01	-3.371781e+02
1.600000e-07	-2.734691e-06	-5.109894e-09	-1.892822e+01	-3.363705e+02
1.700000e-07	-2.717651e-06	-5.202720e-09	-1.881028e+01	-3.355152e+02
1.800000e-07	-2.699319e-06	-5.149334e-09	-1.868340e+01	-3.346268e+02
1.900000e-07	-2.680439e-06	-5.042593e-09	-1.855272e+01	-3.337140e+02
2.000000e-07	-2.660882e-06	-5.121920e-09	-1.841735e+01	-3.327750e+02
2.100000e-07	-2.640310e-06	-5.123495e-09	-1.827496e+01	-3.317967e+02
2.200000e-07	-2.618974e-06	-4.990084e-09	-1.812729e+01	-3.307594e+02
2.300000e-07	-2.596898e-06	-5.074056e-09	-1.797449e+01	-3.296438e+02
2.400000e-07	-2.573798e-06	-5.127646e-09	-1.781460e+01	-3.284387e+02
2.500000e-07	-2.549753e-06	-4.968645e-09	-1.764817e+01	-3.271450e+02
2.600000e-07	-2.524954e-06	-4.946445e-09	-1.747652e+01	-3.257747e+02
2.700000e-07	-2.499272e-06	-5.005474e-09	-1.729877e+01	-3.243453e+02
2.800000e-07	-2.472523e-06	-4.939009e-09	-1.711362e+01	-3.228721e+02
2.900000e-07	-2.444657e-06	-4.903898e-09	-1.692075e+01	-3.213617e+02
3.000000e-07	-2.415817e-06	-4.904065e-09	-1.672113e+01	-3.198087e+02
3.100000e-07	-2.386241e-06	-4.892686e-09	-1.651642e+01	-3.181987e+02
3.200000e-07	-2.355980e-06	-4.861309e-09	-1.630697e+01	-3.165154e+02
3.300000e-07	-2.324980e-06	-4.826538e-09	-1.609240e+01	-3.147480e+02
3.400000e-07	-2.293162e-06	-4.787225e-09	-1.587217e+01	-3.128978e+02
3.500000e-07	-2.260647e-06	-4.755615e-09	-1.564712e+01	-3.109789e+02
3.600000e-07	-2.227563e-06	-4.727033e-09	-1.541813e+01	-3.090132e+02
3.700000e-07	-2.193711e-06	-4.725408e-09	-1.518382e+01	-3.070220e+02
3.800000e-07	-2.158647e-06	-4.700851e-09	-1.494113e+01	-3.050169e+02
3.900000e-07	-2.122457e-06	-4.626655e-09	-1.469064e+01	-3.029945e+02
4.000000e-07	-2.085678e-06	-4.627916e-09	-1.443606e+01	-3.009366e+02
4.100000e-07	-2.048271e-06	-4.612230e-09	-1.417715e+01	-2.988170e+02
4.200000e-07	-2.010087e-06	-4.538497e-09	-1.391287e+01	-2.966116e+02
4.300000e-07	-1.971226e-06	-4.494983e-09	-1.364388e+01	-2.943084e+02
4.400000e-07	-1.931653e-06	-4.484601e-09	-1.336998e+01	-2.919123e+02
4.500000e-07	-1.891403e-06	-4.448836e-09	-1.309139e+01	-2.894441e+02
4.600000e-07	-1.850717e-06	-4.411888e-09	-1.280978e+01	-2.869323e+02
4.700000e-07	-1.809659e-06	-4.369627e-09	-1.252559e+01	-2.844019e+02
4.800000e-07	-1.767826e-06	-4.321756e-09	-1.223605e+01	-2.818637e+02
4.900000e-07	-1.724887e-06	-4.284143e-09	-1.193885e+01	-2.793097e+02
5.000000e-07	-1.681004e-06	-4.242984e-09	-1.163511e+01	-2.767153e+02
5.100000e-07	-1.636523e-06	-4.209095e-09	-1.132723e+01	-2.740481e+02
5.200000e-07	-1.591688e-06	-4.158567e-09	-1.101690e+01	-2.712803e+02
5.300000e-07	-1.546492e-06	-4.119437e-09	-1.070408e+01	-2.683992e+02
5.400000e-07	-1.500717e-06	-4.085568e-09	-1.038724e+01	-2.654120e+02
5.500000e-07	-1.454333e-06	-4.032726e-09	-1.006620e+01	-2.623428e+02
5.600000e-07	-1.407431e-06	-3.967339e-09	-9.741563e+00	-2.592232e+02
5.700000e-07	-1.359993e-06	-3.925040e-09	-9.413223e+00	-2.560790e+02
5.800000e-07	-1.312071e-06	-3.889241e-09	-9.081528e+00	-2.529199e+02
5.900000e-07	-1.263726e-06	-3.835185e-09	-8.746909e+00	-2.497349e+02
6.000000e-07	-1.215061e-06	-3.786643e-09	-8.410074e+00	-2.464953e+02
6.100000e-07	-1.166066e-06	-3.735253e-09	-8.070951e+00	-2.431650e+02
6.200000e-07	-1.116596e-06	-3.678699e-09	-7.728544e+00	-2.397132e+02
6.300000e-07	-1.066545e-06	-3.618958e-09	-7.382113e+00	-2.361252e+02
6.400000e-07	-1.015798e-06	-3.563451e-09	-7.030871e+00	-2.324074e+02
6.500000e-07	-9.643924e-07	-3.503584e-09	-6.675064e+00	-2.285842e+02
6.600000e-07	-9.124681e-07	-3.446732e-09	-6.315668e+00	-2.246886e+02
6.700000e-07	-8.601317e-07	-3.391543e-09	-5.953421e+00	-2.207502e+02
6.800000e-07	-8.075508e-07	-3.329852e-09	-5.589481e+00	-2.167848e+02
6.900000e-07	-7.547831e-07	-3.265952e-09	-5.224248e+00	-2.127894e+02
7.000000e-07	-7.017184e-07	-3.197950e-09	-4.856959e+00	-2.087447e+02
7.100000e-07	-6.484372e-07	-3.133978e-09	-4.488173e+00	-2.046227e+02
7.200000e-07	-5.950477e-07	-3.069268e-09	-4.118636e+00	-2.003969e+02
7.300000e-07	-5.414049e-07	-3.003158e-09	-3.747346e+00	-1.960507e+02
7.400000e-07	-4.874162e-07	-2.933266e-09	-3.373662e+00	-1.915812e+02
7.500000e-07	-4.332065e-07	-2.861130e-09	-2.998448e+00	-1.869971e+02
7.600000e-07	-3.788886e-07	-2.786248e-09	-2.622486e+00	-1.823123e+02
7.700000e-07	-3.244482e-07	-2.709834e-09	-2.245676e+00	-1.775376e+02
7.800000e-07	-2.699372e-07	-2.634312e-09	-1.868376e+00	-1.726748e+02
7.900000e-07	-2.153917e-07	-2.558174e-09	-1.490838e+00	-1.677145e+02
8.000000e-07	-1.607994e-07	-2.483224e-09	-1.112976e+00	-1.626386e+02
8.100000e-07	-1.061823e-07	-2.401989e-09	-7.349432e-01	-1.574260e+02
8.200000e-07	-5.152081e-08	-2.318659e-09	-3.566025e-01	-1.520594e+02
8.300000e-07	3.187574e-09	-2.233146e-09	2.206287e-02	-1.465289e+02
8.400000e-07	5.791369e-08	-2.144827e-09	4.008509e-01	-1.408328e+02
8.500000e-07	1.126383e-07	-2.052751e-09	7.796282e-01	-1.349748e+02
8.600000e-07	1.673177e-07	-1.959076e-09	1.158093e+00	-1.289588e+02
8.700000e-07	2.219507e-07	-1.867756e-09	1.536236e+00	-1.227841e+02
8.800000e-07	2.765442e-07	-1.776706e-09	1.914107e+00	-1.164428e+02
8.900000e-07	3.310563e-07	-1.680587e-09	2.291414e+00	-1.099202e+02
9.000000e-07	3.854403e-07	-1.570612e-09	2.667833e+00	-1.031971e+02
9.100000e-07	4.396493e-07	-1.457007e-09	3.043043e+00	-9.625413e+01
9.200000e-07	4.936367e-07	-1.347485e-09	3.416718e+00	-8.907364e+01
9.300000e-07	5.474187e-07	-1.237947e-09	3.788971e+00	-8.164094e+01
9.400000e-07	6.010464e-07	-1.119220e-09	4.160156e+00	-7.394254e+01
9.500000e-07	6.544511e-07	-9.945000e-10	4.529798e+00	-6.596356e+01
9.600000e-07	7.075706e-07	-8.690887e-10	4.897466e+00	-5.768546e+01
9.700000e-07	7.604211e-07	-7.398534e-10	5.263272e+00	-4.908528e+01
9.800000e-07	8.130581e-07	-6.019118e-10	5.627600e+00	-4.013698e+01
9.900000e-07	8.654446e-07	-4.548062e-10	5.990194e+00	-3.081399e+01
1.000000e-06	9.174564e-07	-3.037848e-10	6.350195e+00	-2.109200e+01
1.010000e-06	9.690255e-07	-1.468455e-10	6.707131e+00	-1.095049e+01
1.020000e-06	1.020034e-06	1.495795e-11	7.060186e+00	-3.727748e-01
1.030000e-06	1.070356e-06	1.838682e-10	7.408494e+00	1.065492e+01
1.040000e-06	1.120030e-06	3.598918e-10	7.752313e+00	2.214372e+01
1.050000e-06	1.169201e-06	5.437181e-10	8.092648e+00	3.410006e+01
1.060000e-06	1.218044e-06	7.348486e-10	8.430722e+00	4.652053e+01
1.070000e-06	1.266639e-06	9.301376e-10	8.767073e+00	5.938408e+01
1.080000e-06	1.314893e-06	1.130845e-09	9.101058e+00	7.264367e+01
1.090000e-06	1.362665e-06	1.336617e-09	9.431713e+00	8.622054e+01
1.100000e-06	1.409916e-06	1.544644e-09	9.758766e+00	1.000038e+02
1.110000e-06	1.456695e-06	1.753165e-09	1.008255e+01	1.138566e+02
1.120000e-06	1.502927e-06	1.963517e-09	1.040254e+01	1.276289e+02
1.130000e-06	1.548592e-06	2.168657e-09	1.071861e+01	1.411725e+02
1.140000e-06	1.593763e-06	2.366810e-09	1.103127e+01	1.543561e+02
1.150000e-06	1.638568e-06	2.560173e-09	1.134139e+01	1.670751e+02
1.160000e-06	1.683031e-06	2.746237e-09	1.164914e+01	1.792549e+02
1.170000e-06	1.726903e-06	2.922501e-09	1.195280e+01	1.908468e+02
1.180000e-06	1.769903e-06	3.086593e-09	1.225042e+01	2.018200e+02
1.190000e-06	1.811910e-06	3.242019e-09	1.254118e+01	2.121532e+02
1.200000e-06	1.853108e-06	3.390823e-09	1.282633e+01	2.218295e+02
1.210000e-06	1.893805e-06	3.531524e-09	1.310801e+01	2.308360e+02
1.220000e-06	1.934007e-06	3.658289e-09	1.338627e+01	2.391688e+02
1.230000e-06	1.973510e-06	3.770275e-09	1.365969e+01	2.468398e+02
1.240000e-06	2.012351e-06	3.873434e-09	1.392853e+01	2.538823e+02
1.250000e-06	2.050531e-06	3.970656e-09	1.419280e+01	2.603513e+02
1.260000e-06	2.087980e-06	4.059849e-09	1.445200e+01	2.663180e+02
1.270000e-06	2.124859e-06	4.142174e-09	1.470726e+01	2.718586e+02
1.280000e-06	2.161206e-06	4.223500e-09	1.495884e+01	2.770422e+02
1.290000e-06	2.196714e-06	4.303170e-09	1.520460e+01	2.819197e+02
1.300000e-06	2.231104e-06	4.375174e-09	1.544263e+01	2.865197e+02
1.310000e-06	2.264495e-06	4.436356e-09	1.567376e+01	2.908505e+02
1.320000e-06	2.297193e-06	4.492340e-09	1.590008e+01	2.949088e+02
1.330000e-06	2.329263e-06	4.545639e-09	1.612204e+01	2.986902e+02
1.340000e-06	2.360573e-06	4.596645e-09	1.633876e+01	3.021987e+02
1.350000e-06	2.391070e-06	4.645935e-09	1.654985e+01	3.054512e+02
1.360000e-06	2.420680e-06	4.691700e-09	1.675479e+01	3.084753e+02
1.370000e-06	2.449552e-06	4.734247e-09	1.695463e+01	3.113033e+02
1.380000e-06	2.477840e-06	4.773085e-09	1.715042e+01	3.139636e+02
1.390000e-06	2.505165e-06	4.808797e-09	1.733956e+01	3.164740e+02
1.400000e-06	2.531220e-06	4.843084e-09	1.751990e+01	3.188401e+02
1.410000e-06	2.556224e-06	4.875498e-09	1.769296e+01	3.210582e+02
1.420000e-06	2.580322e-06	4.904865e-09	1.785976e+01	3.231222e+02
1.430000e-06	2.603521e-06	4.932285e-09	1.802033e+01	3.250306e+02
1.440000e-06	2.625889e-06	4.958927e-09	1.817515e+01	3.267919e+02
1.450000e-06	2.647391e-06	4.983988e-09	1.832398e+01	3.284239e+02
1.460000e-06	2.668164e-06	5.005669e-09	1.846776e+01	3.299498e+02
1.470000e-06	2.688221e-06	5.024729e-09	1.860658e+01	3.313912e+02
1.480000e-06	2.707218e-06	5.044164e-09	1.873807e+01	3.327616e+02
1.490000e-06	2.725187e-06	5.064977e-09	1.886244e+01	3.340630e+02
1.500000e-06	2.742293e-06	5.084837e-09	1.898084e+01	3.352877e+02
1.510000e-06	2.758316e-06	5.102210e-09	1.909174e+01	3.364233e+02
1.520000e-06	2.773222e-06	5.118666e-09	1.919492e+01	3.374594e+02
1.530000e-06	2.787156e-06	5.133004e-09	1.929136e+01	3.383936e+02
1.540000e-06	2.800144e-06	5.143149e-09	1.938126e+01	3.392333e+02
1.550000e-06	2.811979e-06	5.150817e-09	1.946317e+01	3.399929e+02
1.560000e-06	2.822436e-06	5.158977e-09	1.953555e+01	3.406880e+02
1.570000e-06	2.831689e-06	5.170932e-09	1.959960e+01	3.413299e+02
1.580000e-06	2.840013e-06	5.185805e-09	1.965722e+01	3.419208e+02
1.590000e-06	2.847452e-06	5.199398e-09	1.970870e+01	3.424540e+02
1.600000e-06	2.853930e-06	5.208161e-09	1.975354e+01	3.429183e+02
1.610000e-06	2.859441e-06	5.211272e-09	1.979169e+01	3.433038e+02
1.620000e-06	2.864129e-06	5.211970e-09	1.982413e+01	3.436077e+02
1.630000e-06	2.867852e-06	5.213199e-09	1.984990e+01	3.438366e+02
1.640000e-06	2.870306e-06	5.216204e-09	1.986688e+01	3.440048e+02
1.650000e-06	2.871590e-06	5.220837e-09	1.987577e+01	3.441282e+02
1.660000e-06	2.871984e-06	5.226269e-09	1.987850e+01	3.442176e+02
1.670000e-06	2.871508e-06	5.228530e-09	1.987521e+01	3.442735e+02
1.680000e-06	2.870083e-06	5.225291e-09	1.986534e+01	3.442846e+02
1.690000e-06	2.867742e-06	5.221868e-09	1.984914e+01	3.442320e+02
1.700000e-06	2.864640e-06	5.218342e-09	1.982767e+01	3.440961e+02
1.710000e-06	2.860746e-06	5.214120e-09	1.980072e+01	3.438646e+02
1.720000e-06	2.855683e-06	5.210711e-09	1.976567e+01	3.435380e+02
1.730000e-06	2.849426e-06	5.209374e-09	1.972236e+01	3.431298e+02
1.740000e-06	2.842364e-06	5.198783e-09	1.967349e+01	3.426619e+02
1.750000e-06	2.834389e-06	5.152298e-09	1.961829e+01	3.421573e+02
1.760000e-06	2.824935e-06	5.149361e-09	1.955285e+01	3.416314e+02
1.770000e-06	2.813837e-06	5.216155e-09	1.947603e+01	3.410879e+02
1.780000e-06	2.802018e-06	5.212338e-09	1.939423e+01	3.405182e+02
1.790000e-06	2.790234e-06	5.134850e-09	1.931266e+01	3.399069e+02
1.800000e-06	2.777390e-06	5.078949e-09	1.922377e+01	3.392387e+02
1.810000e-06	2.762668e-06	5.171389e-09	1.912187e+01	3.385057e+02
1.820000e-06	2.747064e-06	5.133807e-09	1.901387e+01	3.377103e+02
1.830000e-06	2.731019e-06	5.050513e-09	1.890281e+01	3.368642e+02
1.840000e-06	2.713659e-06	5.169695e-09	1.878265e+01	3.359821e+02
1.850000e-06	2.695061e-06	5.180037e-09	1.865392e+01	3.350746e+02
1.860000e-06	2.675978e-06	5.042188e-09	1.852184e+01	3.341422e+02
1.870000e-06	2.656025e-06	5.071948e-09	1.838374e+01	3.331741e+02
1.880000e-06	2.634599e-06	5.142527e-09	1.823544e+01	3.321514e+02
1.890000e-06	2.612134e-06	5.000620e-09	1.807994e+01	3.310542e+02
1.900000e-06	2.588801e-06	4.966289e-09	1.791845e+01	3.298689e+02
1.910000e-06	2.564460e-06	5.089962e-09	1.774996e+01	3.285938e+02
1.920000e-06	2.539475e-06	5.029049e-09	1.757704e+01	3.272387e+02
1.930000e-06	2.513706e-06	4.932317e-09	1.739867e+01	3.258207e+02
1.940000e-06	2.487018e-06	4.975671e-09	1.721395e+01	3.243563e+02
1.950000e-06	2.459723e-06	4.938759e-09	1.702503e+01	3.228541e+02
1.960000e-06	2.431477e-06	4.899407e-09	1.682952e+01	3.213115e+02
1.970000e-06	2.401867e-06	4.870804e-09	1.662458e+01	3.197154e+02
1.980000e-06	2.371283e-06	4.845904e-09	1.641289e+01	3.180493e+02
1.990000e-06	2.340024e-06	4.860251e-09	1.619653e+01	3.163005e+02
2.000000e-06	2.308063e-06	4.813271e-09	1.597531e+01	3.144676e+02
2.010000e-06	2.275373e-06	4.773263e-09	1.574904e+01	3.125620e+02
2.020000e-06	2.241765e-06	4.770358e-09	1.551643e+01	3.106046e+02
2.030000e-06	2.207395e-06	4.685046e-09	1.527853e+01	3.086176e+02
2.040000e-06	2.172501e-06	4.661809e-09	1.503701e+01	3.066155e+02
2.050000e-06	2.136930e-06	4.683832e-09	1.479081e+01	3.045982e+02
2.060000e-06	2.100500e-06	4.589886e-09	1.453866e+01	3.025502e+02
2.070000e-06	2.062976e-06	4.573647e-09	1.427894e+01	3.004463e+02
2.080000e-06	2.024438e-06	4.588644e-09	1.401219e+01	2.982612e+02
2.090000e-06	1.985342e-06	4.513327e-09	1.374159e+01	2.959793e+02
2.100000e-06	1.945690e-06	4.482340e-09	1.346714e+01	2.936021e+02
2.110000e-06	1.905338e-06	4.444417e-09	1.318784e+01	2.911473e+02
2.120000e-06	1.864374e-06	4.385460e-09	1.290430e+01	2.886427e+02
2.130000e-06	1.822835e-06	4.369830e-09	1.261679e+01	2.861150e+02
2.140000e-06	1.780706e-06	4.329722e-09	1.232519e+01	2.835787e+02
2.150000e-06	1.738035e-06	4.294962e-09	1.202985e+01	2.810300e+02
2.160000e-06	1.694996e-06	4.259710e-09	1.173195e+01	2.784471e+02
2.170000e-06	1.651562e-06	4.196968e-09	1.143132e+01	2.757985e+02
2.180000e-06	1.607415e-06	4.170719e-09	1.112576e+01	2.730542e+02
2.190000e-06	1.562491e-06	4.122844e-09	1.081482e+01	2.701977e+02
2.200000e-06	1.517019e-06	4.065884e-09	1.050008e+01	2.672319e+02
2.210000e-06	1.471141e-06	4.044270e-09	1.018254e+01	2.641780e+02
2.220000e-06	1.424870e-06	3.996491e-09	9.862272e+00	2.610669e+02
2.230000e-06	1.378078e-06	3.939812e-09	9.538395e+00	2.579267e+02
2.240000e-06	1.330557e-06	3.883867e-09	9.209478e+00	2.547713e+02
2.250000e-06	1.282325e-06	3.834324e-09	8.875639e+00	2.515940e+02
2.260000e-06	1.233613e-06	3.793288e-09	8.538478e+00	2.483693e+02
2.270000e-06	1.184600e-06	3.744057e-09	8.199233e+00	2.450617e+02
2.280000e-06	1.135208e-06	3.698986e-09	7.857365e+00	2.416381e+02
2.290000e-06	1.085295e-06	3.646980e-09	7.511894e+00	2.380797e+02
2.300000e-06	1.034923e-06	3.586987e-09	7.163243e+00	2.343884e+02
2.310000e-06	9.842023e-07	3.529574e-09	6.812178e+00	2.305854e+02
2.320000e-06	9.331778e-07	3.460124e-09	6.459011e+00	2.267028e+02
2.330000e-06	8.818752e-07	3.395189e-09	6.103919e+00	2.227720e+02
2.340000e-06	8.303312e-07	3.344594e-09	5.747156e+00	2.188122e+02
2.350000e-06	7.783886e-07	3.291972e-09	5.387634e+00	2.148246e+02
2.360000e-06	7.258566e-07	3.236803e-09	5.024033e+00	2.107930e+02
2.370000e-06	6.728257e-07	3.167363e-09	4.656978e+00	2.066902e+02
2.380000e-06	6.193739e-07	3.102321e-09	4.287010e+00	2.024887e+02
2.390000e-06	5.655491e-07	3.043540e-09	3.914460e+00	1.981693e+02
2.400000e-06	5.114464e-07	2.973908e-09	3.539988e+00	1.937260e+02
2.410000e-06	4.571185e-07	2.903201e-09	3.163956e+00	1.891656e+02
2.420000e-06	4.026548e-07	2.834240e-09	2.786984e+00	1.845015e+02
2.430000e-06	3.480607e-07	2.770257e-09	2.409110e+00	1.797458e+02
2.440000e-06	2.933445e-07	2.701341e-09	2.030391e+00	1.749026e+02
2.450000e-06	2.385277e-07	2.622120e-09	1.650975e+00	1.699648e+02
2.460000e-06	1.836314e-07	2.542947e-09	1.271009e+00	1.649156e+02
2.470000e-06	1.287064e-07	2.464600e-09	8.908445e-01	1.597343e+02
2.480000e-06	7.378527e-08	2.383459e-09	5.107064e-01	1.544021e+02
2.490000e-06	1.885797e-08	2.299093e-09	1.305259e-01	1.489073e+02
2.500000e-06	-3.609518e-08	2.212807e-09	-2.498336e-01	1.432467e+02
2.510000e-06	-9.102514e-08	2.127909e-09	-6.300325e-01	1.374233e+02
2.520000e-06	-1.459138e-07	2.041635e-09	-1.009945e+00	1.314412e+02
2.530000e-06	-2.007917e-07	1.947526e-09	-1.389784e+00	1.253012e+02
2.540000e-06	-2.556411e-07	1.847901e-09	-1.769426e+00	1.189969e+02
2.550000e-06	-3.104643e-07	1.745683e-09	-2.148886e+00	1.125149e+02
2.560000e-06	-3.652133e-07	1.647122e-09	-2.527832e+00	1.058368e+02
2.570000e-06	-4.198046e-07	1.546219e-09	-2.905687e+00	9.894270e+01
2.580000e-06	-4.742322e-07	1.436575e-09	-3.282409e+00	9.181468e+01
2.590000e-06	-5.284921e-07	1.322142e-09	-3.657969e+00	8.443742e+01
2.600000e-06	-5.824714e-07	1.207392e-09	-4.031589e+00	7.679737e+01
2.610000e-06	-6.360902e-07	1.091961e-09	-4.402713e+00	6.888018e+01
2.620000e-06	-6.892689e-07	9.673238e-10	-4.770790e+00	6.066822e+01
2.630000e-06	-7.419346e-07	8.351202e-10	-5.135317e+00	5.213944e+01
2.640000e-06	-7.941863e-07	6.990220e-10	-5.496978e+00	4.326825e+01
2.650000e-06	-8.460379e-07	5.606154e-10	-5.855870e+00	3.402796e+01
2.660000e-06	-8.974923e-07	4.167535e-10	-6.212013e+00	2.439360e+01
2.670000e-06	-9.486096e-07	2.635404e-10	-6.565823e+00	1.434377e+01
2.680000e-06	-9.994376e-07	1.026685e-10	-6.917629e+00	3.861021e+00
2.690000e-06	-1.049973e-06	-6.154949e-11	-7.267415e+00	-7.068963e+00
2.700000e-06	-1.100132e-06	-2.295301e-10	-7.614585e+00	-1.845794e+01
2.710000e-06	-1.149812e-06	-4.080812e-10	-7.958449e+00	-3.031368e+01
2.720000e-06	-1.198988e-06	-5.970453e-10	-8.298819e+00	-4.263548e+01
2.730000e-06	-1.247724e-06	-7.932613e-10	-8.636146e+00	-5.540679e+01
2.740000e-06	-1.295834e-06	-9.946502e-10	-8.969143e+00	-6.858676e+01
2.750000e-06	-1.343146e-06	-1.201627e-09	-9.296617e+00	-8.210368e+01
2.760000e-06	-1.389719e-06	-1.414775e-09	-9.618968e+00	-9.585323e+01
2.770000e-06	-1.435789e-06	-1.630228e-09	-9.937848e+00	-1.097033e+02
2.780000e-06	-1.481454e-06	-1.841421e-09	-1.025391e+01	-1.235054e+02
2.790000e-06	-1.526686e-06	-2.048080e-09	-1.056699e+01	-1.371095e+02
2.800000e-06	-1.571622e-06	-2.252432e-09	-1.087802e+01	-1.503798e+02
2.810000e-06	-1.616101e-06	-2.450024e-09	-1.118588e+01	-1.632055e+02
2.820000e-06	-1.659965e-06	-2.639513e-09	-1.148949e+01	-1.755054e+02
2.830000e-06	-1.703296e-06	-2.819193e-09	-1.178940e+01	-1.872261e+02
2.840000e-06	-1.746240e-06	-2.988615e-09	-1.208664e+01	-1.983336e+02
2.850000e-06	-1.788754e-06	-3.148718e-09	-1.238090e+01	-2.088053e+02
2.860000e-06	-1.830650e-06	-3.300843e-09	-1.267089e+01	-2.186234e+02
2.870000e-06	-1.871851e-06	-3.442767e-09	-1.295606e+01	-2.277739e+02
2.880000e-06	-1.912446e-06	-3.572144e-09	-1.323704e+01	-2.362504e+02
2.890000e-06	-1.952442e-06	-3.691558e-09	-1.351387e+01	-2.440610e+02
2.900000e-06	-1.991826e-06	-3.802741e-09	-1.378647e+01	-2.512339e+02
2.910000e-06	-2.030690e-06	-3.905455e-09	-1.405547e+01	-2.578200e+02
2.920000e-06	-2.068812e-06	-3.998875e-09	-1.431933e+01	-2.638876e+02
2.930000e-06	-2.105874e-06	-4.085669e-09	-1.457586e+01	-2.695130e+02
2.940000e-06	-2.141838e-06	-4.167849e-09	-1.482478e+01	-2.747679e+02
