# Temperatura_=_22.64
# Concentracion g/m^3_=_13400.0
# C_Vs_to_Am_M_A/Vsm_=_65563218390.804596
# pendiente_HvsI_1/m_=_3716.3
# ordenada_HvsI_A/m_=_1297.0
# frecuencia_Hz_=_300839.58448832756

Tiempo_(s)	Campo_(V.s)	Magnetizacion_(V.s)	Campo_(kA/m)	Magnetizacion_(A/m)
0.000000e+00	-2.862555e-06	-5.133340e-09	-1.980279e+01	-3.353369e+02
1.000000e-08	-2.861486e-06	-5.128176e-09	-1.979539e+01	-3.353550e+02
2.000000e-08	-2.859424e-06	-5.124483e-09	-1.978113e+01	-3.353092e+02
3.000000e-08	-2.856053e-06	-5.124420e-09	-1.975781e+01	-3.351997e+02
4.000000e-08	-2.851693e-06	-5.124293e-09	-1.972765e+01	-3.350258e+02
5.000000e-08	-2.846549e-06	-5.119637e-09	-1.969206e+01	-3.347864e+02
6.000000e-08	-2.840491e-06	-5.113416e-09	-1.965015e+01	-3.344798e+02
7.000000e-08	-2.833425e-06	-5.112690e-09	-1.960127e+01	-3.341054e+02
8.000000e-08	-2.825343e-06	-5.115178e-09	-1.954536e+01	-3.336645e+02
9.000000e-08	-2.816103e-06	-5.111662e-09	-1.948144e+01	-3.331607e+02
1.000000e-07	-2.805373e-06	-5.089095e-09	-1.940721e+01	-3.326003e+02
1.100000e-07	-2.793455e-06	-5.060176e-09	-1.932476e+01	-3.319908e+02
1.200000e-07	-2.780836e-06	-5.058066e-09	-1.923746e+01	-3.313404e+02
1.300000e-07	-2.767295e-06	-5.061822e-09	-1.914379e+01	-3.306567e+02
1.400000e-07	-2.752700e-06	-5.066579e-09	-1.904283e+01	-3.299457e+02
1.500000e-07	-2.737143e-06	-5.024808e-09	-1.893520e+01	-3.292108e+02
1.600000e-07	-2.720289e-06	-5.022971e-09	-1.881861e+01	-3.284524e+02
1.700000e-07	-2.702140e-06	-5.035979e-09	-1.869305e+01	-3.276668e+02
1.800000e-07	-2.683258e-06	-4.989139e-09	-1.856244e+01	-3.268462e+02
1.900000e-07	-2.663696e-06	-4.967449e-09	-1.842711e+01	-3.259796e+02
2.000000e-07	-2.643198e-06	-4.960214e-09	-1.828530e+01	-3.250535e+02
2.100000e-07	-2.621864e-06	-4.944299e-09	-1.813772e+01	-3.240553e+02
2.200000e-07	-2.599763e-06	-4.928339e-09	-1.798483e+01	-3.229753e+02
2.300000e-07	-2.576688e-06	-4.934947e-09	-1.782520e+01	-3.218098e+02
2.400000e-07	-2.552672e-06	-4.916560e-09	-1.765906e+01	-3.205620e+02
2.500000e-07	-2.527909e-06	-4.868207e-09	-1.748775e+01	-3.192409e+02
2.600000e-07	-2.502310e-06	-4.844502e-09	-1.731066e+01	-3.178587e+02
2.700000e-07	-2.475656e-06	-4.844343e-09	-1.712627e+01	-3.164266e+02
2.800000e-07	-2.447913e-06	-4.803658e-09	-1.693435e+01	-3.149508e+02
2.900000e-07	-2.419254e-06	-4.775023e-09	-1.673609e+01	-3.134302e+02
3.000000e-07	-2.389754e-06	-4.767833e-09	-1.653201e+01	-3.118570e+02
3.100000e-07	-2.359517e-06	-4.761717e-09	-1.632283e+01	-3.102199e+02
3.200000e-07	-2.328581e-06	-4.727632e-09	-1.610883e+01	-3.085085e+02
3.300000e-07	-2.296797e-06	-4.676598e-09	-1.588894e+01	-3.067186e+02
3.400000e-07	-2.264314e-06	-4.659106e-09	-1.566423e+01	-3.048543e+02
3.500000e-07	-2.231231e-06	-4.630885e-09	-1.543537e+01	-3.029275e+02
3.600000e-07	-2.197306e-06	-4.601295e-09	-1.520068e+01	-3.009534e+02
3.700000e-07	-2.162178e-06	-4.583797e-09	-1.495767e+01	-2.989450e+02
3.800000e-07	-2.125996e-06	-4.558003e-09	-1.470737e+01	-2.969074e+02
3.900000e-07	-2.089261e-06	-4.519088e-09	-1.445324e+01	-2.948350e+02
4.000000e-07	-2.051984e-06	-4.495410e-09	-1.419536e+01	-2.927127e+02
4.100000e-07	-2.014002e-06	-4.449983e-09	-1.393260e+01	-2.905218e+02
4.200000e-07	-1.975254e-06	-4.400022e-09	-1.366455e+01	-2.882470e+02
4.300000e-07	-1.935729e-06	-4.377100e-09	-1.339112e+01	-2.858833e+02
4.400000e-07	-1.895540e-06	-4.349347e-09	-1.311310e+01	-2.834390e+02
4.500000e-07	-1.854930e-06	-4.309762e-09	-1.283217e+01	-2.809340e+02
4.600000e-07	-1.813959e-06	-4.267825e-09	-1.254874e+01	-2.783931e+02
4.700000e-07	-1.772181e-06	-4.230350e-09	-1.225972e+01	-2.758367e+02
4.800000e-07	-1.729274e-06	-4.183817e-09	-1.196289e+01	-2.732728e+02
4.900000e-07	-1.685456e-06	-4.139771e-09	-1.165977e+01	-2.706930e+02
5.000000e-07	-1.641075e-06	-4.100363e-09	-1.135274e+01	-2.680744e+02
5.100000e-07	-1.596301e-06	-4.066543e-09	-1.104301e+01	-2.653872e+02
5.200000e-07	-1.551049e-06	-4.027250e-09	-1.072996e+01	-2.626050e+02
5.300000e-07	-1.505242e-06	-3.983648e-09	-1.041307e+01	-2.597139e+02
5.400000e-07	-1.458877e-06	-3.934182e-09	-1.009233e+01	-2.567180e+02
5.500000e-07	-1.411950e-06	-3.879312e-09	-9.767688e+00	-2.536371e+02
5.600000e-07	-1.364507e-06	-3.834744e-09	-9.439485e+00	-2.504989e+02
5.700000e-07	-1.316626e-06	-3.788892e-09	-9.108248e+00	-2.473287e+02
5.800000e-07	-1.268337e-06	-3.740329e-09	-8.774193e+00	-2.441387e+02
5.900000e-07	-1.219698e-06	-3.690002e-09	-8.437715e+00	-2.409231e+02
6.000000e-07	-1.170637e-06	-3.640585e-09	-8.098318e+00	-2.376593e+02
6.100000e-07	-1.120949e-06	-3.584674e-09	-7.754582e+00	-2.343165e+02
6.200000e-07	-1.070601e-06	-3.527700e-09	-7.406280e+00	-2.308661e+02
6.300000e-07	-1.019722e-06	-3.476204e-09	-7.054307e+00	-2.272929e+02
6.400000e-07	-9.683345e-07	-3.423500e-09	-6.698813e+00	-2.235997e+02
6.500000e-07	-9.164420e-07	-3.364695e-09	-6.339828e+00	-2.198066e+02
6.600000e-07	-8.641584e-07	-3.301858e-09	-5.978137e+00	-2.159424e+02
6.700000e-07	-8.116276e-07	-3.241552e-09	-5.614735e+00	-2.120339e+02
6.800000e-07	-7.588524e-07	-3.178245e-09	-5.249643e+00	-2.080954e+02
6.900000e-07	-7.058213e-07	-3.116501e-09	-4.882781e+00	-2.041234e+02
7.000000e-07	-6.525398e-07	-3.055841e-09	-4.514186e+00	-2.000978e+02
7.100000e-07	-5.990095e-07	-2.994740e-09	-4.143871e+00	-1.959895e+02
7.200000e-07	-5.453010e-07	-2.930311e-09	-3.772322e+00	-1.917711e+02
7.300000e-07	-4.913990e-07	-2.859586e-09	-3.399435e+00	-1.874260e+02
7.400000e-07	-4.372813e-07	-2.784831e-09	-3.025056e+00	-1.829536e+02
7.500000e-07	-3.829879e-07	-2.710908e-09	-2.649461e+00	-1.783666e+02
7.600000e-07	-3.286246e-07	-2.641460e-09	-2.273383e+00	-1.736841e+02
7.700000e-07	-2.742046e-07	-2.570802e-09	-1.896912e+00	-1.689218e+02
7.800000e-07	-2.196990e-07	-2.497573e-09	-1.519849e+00	-1.640830e+02
7.900000e-07	-1.650999e-07	-2.423092e-09	-1.142140e+00	-1.591553e+02
8.000000e-07	-1.104530e-07	-2.347426e-09	-7.640995e-01	-1.541136e+02
8.100000e-07	-5.580152e-08	-2.266135e-09	-3.860277e-01	-1.489275e+02
8.200000e-07	-1.123946e-09	-2.179161e-09	-7.775315e-03	-1.435714e+02
8.300000e-07	5.357302e-08	-2.090149e-09	3.706113e-01	-1.380316e+02
8.400000e-07	1.082399e-07	-2.001166e-09	7.487900e-01	-1.323095e+02
8.500000e-07	1.628472e-07	-1.913957e-09	1.126556e+00	-1.264177e+02
8.600000e-07	2.174004e-07	-1.824828e-09	1.503948e+00	-1.203723e+02
8.700000e-07	2.718820e-07	-1.732832e-09	1.880845e+00	-1.141832e+02
8.800000e-07	3.263131e-07	-1.638231e-09	2.257392e+00	-1.078469e+02
8.900000e-07	3.806893e-07	-1.537899e-09	2.633560e+00	-1.013446e+02
9.000000e-07	4.349325e-07	-1.430142e-09	3.008807e+00	-9.464561e+01
9.100000e-07	4.889858e-07	-1.319896e-09	3.382741e+00	-8.771489e+01
9.200000e-07	5.428525e-07	-1.209292e-09	3.755384e+00	-8.052163e+01
9.300000e-07	5.965375e-07	-1.096001e-09	4.126770e+00	-7.304535e+01
9.400000e-07	6.499833e-07	-9.780920e-10	4.496501e+00	-6.527702e+01
9.500000e-07	7.031382e-07	-8.535610e-10	4.864219e+00	-5.721537e+01
9.600000e-07	7.560217e-07	-7.259754e-10	5.230061e+00	-4.885968e+01
9.700000e-07	8.086494e-07	-5.953458e-10	5.594133e+00	-4.020243e+01
9.800000e-07	8.610285e-07	-4.583348e-10	5.956484e+00	-3.122472e+01
9.900000e-07	9.131173e-07	-3.112501e-10	6.316828e+00	-2.189639e+01
1.000000e-06	9.648839e-07	-1.564482e-10	6.674942e+00	-1.218090e+01
1.010000e-06	1.016170e-06	1.322289e-12	7.029732e+00	-2.043038e+00
1.020000e-06	1.066745e-06	1.621201e-10	7.379603e+00	8.542942e+00
1.030000e-06	1.116588e-06	3.304443e-10	7.724409e+00	1.958755e+01
1.040000e-06	1.165811e-06	5.081632e-10	8.064928e+00	3.108377e+01
1.050000e-06	1.214628e-06	6.897489e-10	8.402642e+00	4.300792e+01
1.060000e-06	1.263193e-06	8.743362e-10	8.738608e+00	5.532220e+01
1.070000e-06	1.311498e-06	1.066190e-09	9.072773e+00	6.797661e+01
1.080000e-06	1.359371e-06	1.267310e-09	9.403953e+00	8.090913e+01
1.090000e-06	1.406652e-06	1.469635e-09	9.731039e+00	9.404381e+01
1.100000e-06	1.453394e-06	1.668710e-09	1.005439e+01	1.072885e+02
1.110000e-06	1.499667e-06	1.866998e-09	1.037450e+01	1.205340e+02
1.120000e-06	1.545423e-06	2.064471e-09	1.069104e+01	1.336575e+02
1.130000e-06	1.590640e-06	2.260236e-09	1.100384e+01	1.465298e+02
1.140000e-06	1.635439e-06	2.450900e-09	1.131376e+01	1.590264e+02
1.150000e-06	1.679943e-06	2.632826e-09	1.162163e+01	1.710400e+02
1.160000e-06	1.723965e-06	2.806611e-09	1.192617e+01	1.824894e+02
1.170000e-06	1.767171e-06	2.972349e-09	1.222506e+01	1.933244e+02
1.180000e-06	1.809410e-06	3.127155e-09	1.251727e+01	2.035241e+02
1.190000e-06	1.850758e-06	3.271066e-09	1.280331e+01	2.130894e+02
1.200000e-06	1.891475e-06	3.406801e-09	1.308498e+01	2.220341e+02
1.210000e-06	1.931698e-06	3.534902e-09	1.336324e+01	2.303760e+02
1.220000e-06	1.971322e-06	3.651547e-09	1.363735e+01	2.381326e+02
1.230000e-06	2.010290e-06	3.757278e-09	1.390692e+01	2.453215e+02
1.240000e-06	2.048564e-06	3.855955e-09	1.417170e+01	2.519644e+02
1.250000e-06	2.086076e-06	3.948739e-09	1.443120e+01	2.580925e+02
1.260000e-06	2.122942e-06	4.035555e-09	1.468624e+01	2.637499e+02
1.270000e-06	2.159276e-06	4.115460e-09	1.493759e+01	2.689927e+02
1.280000e-06	2.194884e-06	4.189050e-09	1.518392e+01	2.738821e+02
1.290000e-06	2.229476e-06	4.256458e-09	1.542323e+01	2.784754e+02
1.300000e-06	2.262977e-06	4.320250e-09	1.565498e+01	2.828158e+02
1.310000e-06	2.295652e-06	4.380765e-09	1.588103e+01	2.869266e+02
1.320000e-06	2.327706e-06	4.437448e-09	1.610277e+01	2.908104e+02
1.330000e-06	2.359051e-06	4.491705e-09	1.631961e+01	2.944550e+02
1.340000e-06	2.389608e-06	4.543324e-09	1.653100e+01	2.978441e+02
1.350000e-06	2.419333e-06	4.590405e-09	1.673663e+01	3.009676e+02
1.360000e-06	2.448317e-06	4.629840e-09	1.693714e+01	3.038304e+02
1.370000e-06	2.476692e-06	4.663652e-09	1.713344e+01	3.064546e+02
1.380000e-06	2.504204e-06	4.696916e-09	1.732376e+01	3.088756e+02
1.390000e-06	2.530434e-06	4.732124e-09	1.750522e+01	3.111334e+02
1.400000e-06	2.555516e-06	4.765758e-09	1.767873e+01	3.132630e+02
1.410000e-06	2.579707e-06	4.797010e-09	1.784608e+01	3.152862e+02
1.420000e-06	2.603010e-06	4.827618e-09	1.800729e+01	3.172093e+02
1.430000e-06	2.625439e-06	4.856447e-09	1.816245e+01	3.190250e+02
1.440000e-06	2.646991e-06	4.881168e-09	1.831154e+01	3.207201e+02
1.450000e-06	2.667806e-06	4.900085e-09	1.845554e+01	3.222833e+02
1.460000e-06	2.687901e-06	4.916114e-09	1.859455e+01	3.237123e+02
1.470000e-06	2.707062e-06	4.933959e-09	1.872711e+01	3.250158e+02
1.480000e-06	2.725163e-06	4.954701e-09	1.885233e+01	3.262121e+02
1.490000e-06	2.742336e-06	4.975294e-09	1.897113e+01	3.273231e+02
1.500000e-06	2.758548e-06	4.992693e-09	1.908328e+01	3.283679e+02
1.510000e-06	2.773553e-06	5.007729e-09	1.918708e+01	3.293577e+02
1.520000e-06	2.787516e-06	5.022100e-09	1.928367e+01	3.302936e+02
1.530000e-06	2.800585e-06	5.034594e-09	1.937409e+01	3.311687e+02
1.540000e-06	2.812560e-06	5.043483e-09	1.945693e+01	3.319725e+02
1.550000e-06	2.823177e-06	5.049396e-09	1.953038e+01	3.326963e+02
1.560000e-06	2.832512e-06	5.057652e-09	1.959495e+01	3.333371e+02
1.570000e-06	2.840895e-06	5.071137e-09	1.965295e+01	3.338991e+02
1.580000e-06	2.848400e-06	5.085771e-09	1.970487e+01	3.343923e+02
1.590000e-06	2.854927e-06	5.094674e-09	1.975002e+01	3.348287e+02
1.600000e-06	2.860502e-06	5.097677e-09	1.978858e+01	3.352188e+02
1.610000e-06	2.865266e-06	5.100590e-09	1.982154e+01	3.355684e+02
1.620000e-06	2.869132e-06	5.104897e-09	1.984829e+01	3.358775e+02
1.630000e-06	2.871717e-06	5.108208e-09	1.986617e+01	3.361419e+02
1.640000e-06	2.873066e-06	5.110513e-09	1.987550e+01	3.363550e+02
1.650000e-06	2.873500e-06	5.113930e-09	1.987850e+01	3.365105e+02
1.660000e-06	2.873033e-06	5.117864e-09	1.987527e+01	3.366042e+02
1.670000e-06	2.871651e-06	5.118842e-09	1.986571e+01	3.366340e+02
1.680000e-06	2.869365e-06	5.116339e-09	1.984990e+01	3.365998e+02
1.690000e-06	2.866288e-06	5.114507e-09	1.982861e+01	3.365019e+02
1.700000e-06	2.862473e-06	5.113642e-09	1.980222e+01	3.363399e+02
1.710000e-06	2.857610e-06	5.111223e-09	1.976858e+01	3.361126e+02
1.720000e-06	2.851523e-06	5.104338e-09	1.972647e+01	3.358183e+02
1.730000e-06	2.844509e-06	5.093726e-09	1.967795e+01	3.354562e+02
1.740000e-06	2.836588e-06	5.078803e-09	1.962315e+01	3.350272e+02
1.750000e-06	2.827234e-06	5.070581e-09	1.955844e+01	3.345345e+02
1.760000e-06	2.816301e-06	5.073955e-09	1.948281e+01	3.339839e+02
1.770000e-06	2.804565e-06	5.095519e-09	1.940162e+01	3.333828e+02
1.780000e-06	2.792747e-06	5.064850e-09	1.931986e+01	3.327394e+02
1.790000e-06	2.780092e-06	5.029678e-09	1.923232e+01	3.320614e+02
1.800000e-06	2.765655e-06	5.030134e-09	1.913244e+01	3.313551e+02
1.810000e-06	2.750103e-06	5.032250e-09	1.902486e+01	3.306246e+02
1.820000e-06	2.734071e-06	5.007890e-09	1.891395e+01	3.298708e+02
1.830000e-06	2.716873e-06	4.989300e-09	1.879498e+01	3.290907e+02
1.840000e-06	2.698307e-06	5.027371e-09	1.866654e+01	3.282774e+02
1.850000e-06	2.679115e-06	5.004786e-09	1.853377e+01	3.274201e+02
1.860000e-06	2.659203e-06	4.953054e-09	1.839602e+01	3.265059e+02
1.870000e-06	2.637973e-06	4.975611e-09	1.824916e+01	3.255216e+02
1.880000e-06	2.615657e-06	4.962349e-09	1.809478e+01	3.244570e+02
1.890000e-06	2.592404e-06	4.899716e-09	1.793392e+01	3.233070e+02
1.900000e-06	2.568147e-06	4.902729e-09	1.776611e+01	3.220736e+02
1.910000e-06	2.543199e-06	4.907003e-09	1.759352e+01	3.207649e+02
1.920000e-06	2.517476e-06	4.874388e-09	1.741557e+01	3.193930e+02
1.930000e-06	2.490813e-06	4.845826e-09	1.723112e+01	3.179694e+02
1.940000e-06	2.463473e-06	4.840941e-09	1.704199e+01	3.165015e+02
1.950000e-06	2.435315e-06	4.815713e-09	1.684720e+01	3.149895e+02
1.960000e-06	2.405878e-06	4.768500e-09	1.664355e+01	3.134268e+02
1.970000e-06	2.375356e-06	4.734693e-09	1.643241e+01	3.118021e+02
1.980000e-06	2.344101e-06	4.732762e-09	1.621619e+01	3.101048e+02
1.990000e-06	2.312098e-06	4.719339e-09	1.599480e+01	3.083291e+02
2.000000e-06	2.279391e-06	4.668625e-09	1.576853e+01	3.064776e+02
2.010000e-06	2.245863e-06	4.652075e-09	1.553659e+01	3.045611e+02
2.020000e-06	2.211550e-06	4.628872e-09	1.529922e+01	3.025946e+02
2.030000e-06	2.176670e-06	4.569090e-09	1.505792e+01	3.005919e+02
2.040000e-06	2.141139e-06	4.542043e-09	1.481212e+01	2.985599e+02
2.050000e-06	2.104779e-06	4.516705e-09	1.456059e+01	2.964948e+02
2.060000e-06	2.067416e-06	4.476424e-09	1.430212e+01	2.943831e+02
2.070000e-06	2.029039e-06	4.465156e-09	1.403663e+01	2.922060e+02
2.080000e-06	1.989947e-06	4.431895e-09	1.376620e+01	2.899471e+02
2.090000e-06	1.950326e-06	4.379615e-09	1.349210e+01	2.875993e+02
2.100000e-06	1.910046e-06	4.348257e-09	1.321345e+01	2.851684e+02
2.110000e-06	1.869102e-06	4.300213e-09	1.293021e+01	2.826727e+02
2.120000e-06	1.827585e-06	4.259024e-09	1.264300e+01	2.801367e+02
2.130000e-06	1.785425e-06	4.229361e-09	1.235134e+01	2.775823e+02
2.140000e-06	1.742668e-06	4.194294e-09	1.205555e+01	2.750201e+02
2.150000e-06	1.699514e-06	4.159325e-09	1.175702e+01	2.724447e+02
2.160000e-06	1.655974e-06	4.107277e-09	1.145582e+01	2.698354e+02
2.170000e-06	1.611797e-06	4.058928e-09	1.115020e+01	2.671629e+02
2.180000e-06	1.566905e-06	4.023773e-09	1.083965e+01	2.643993e+02
2.190000e-06	1.521442e-06	3.982927e-09	1.052514e+01	2.615282e+02
2.200000e-06	1.475542e-06	3.939257e-09	1.020761e+01	2.585502e+02
2.210000e-06	1.429253e-06	3.894889e-09	9.887386e+00	2.554827e+02
2.220000e-06	1.382454e-06	3.844189e-09	9.563638e+00	2.523529e+02
2.230000e-06	1.335076e-06	3.795049e-09	9.235885e+00	2.491873e+02
2.240000e-06	1.287074e-06	3.740181e-09	8.903810e+00	2.460010e+02
2.250000e-06	1.238480e-06	3.693216e-09	8.567643e+00	2.427914e+02
2.260000e-06	1.189460e-06	3.654296e-09	8.228528e+00	2.395386e+02
2.270000e-06	1.140048e-06	3.607278e-09	7.886705e+00	2.362125e+02
2.280000e-06	1.090168e-06	3.553007e-09	7.541642e+00	2.327832e+02
2.290000e-06	1.039793e-06	3.491810e-09	7.193155e+00	2.292324e+02
2.300000e-06	9.890007e-07	3.436273e-09	6.841779e+00	2.255599e+02
2.310000e-06	9.379500e-07	3.379708e-09	6.488618e+00	2.217828e+02
2.320000e-06	8.866669e-07	3.318239e-09	6.133847e+00	2.179294e+02
2.330000e-06	8.350999e-07	3.261783e-09	5.777114e+00	2.140275e+02
2.340000e-06	7.831902e-07	3.207540e-09	5.418009e+00	2.100943e+02
2.350000e-06	7.308072e-07	3.147866e-09	5.055630e+00	2.061296e+02
2.360000e-06	6.779270e-07	3.083997e-09	4.689811e+00	2.021158e+02
2.370000e-06	6.246002e-07	3.021759e-09	4.320904e+00	1.980247e+02
2.380000e-06	5.708738e-07	2.963267e-09	3.949231e+00	1.938278e+02
2.390000e-06	5.168192e-07	2.901827e-09	3.575289e+00	1.895062e+02
2.400000e-06	4.624758e-07	2.834116e-09	3.199348e+00	1.850561e+02
2.410000e-06	4.079496e-07	2.766368e-09	2.822143e+00	1.804884e+02
2.420000e-06	3.532670e-07	2.698213e-09	2.443855e+00	1.758219e+02
2.430000e-06	2.984109e-07	2.626631e-09	2.064368e+00	1.710734e+02
2.440000e-06	2.434700e-07	2.549023e-09	1.684294e+00	1.662489e+02
2.450000e-06	1.884876e-07	2.472530e-09	1.303933e+00	1.613389e+02
2.460000e-06	1.334836e-07	2.400758e-09	9.234221e-01	1.563200e+02
2.470000e-06	7.846012e-08	2.325382e-09	5.427770e-01	1.511621e+02
2.480000e-06	2.340897e-08	2.244215e-09	1.619402e-01	1.458380e+02
2.490000e-06	-3.166075e-08	2.158164e-09	-2.190250e-01	1.403315e+02
2.500000e-06	-8.673693e-08	2.072013e-09	-6.000349e-01	1.346415e+02
2.510000e-06	-1.417964e-07	1.984811e-09	-9.809294e-01	1.287791e+02
2.520000e-06	-1.968062e-07	1.893259e-09	-1.361480e+00	1.227604e+02
2.530000e-06	-2.517401e-07	1.798344e-09	-1.741506e+00	1.165969e+02
2.540000e-06	-3.065861e-07	1.702751e-09	-2.120923e+00	1.102881e+02
2.550000e-06	-3.613431e-07	1.607939e-09	-2.499725e+00	1.038177e+02
2.560000e-06	-4.159808e-07	1.508520e-09	-2.877702e+00	9.715664e+01
2.570000e-06	-4.704693e-07	1.401819e-09	-3.254646e+00	9.027001e+01
2.580000e-06	-5.247743e-07	1.291829e-09	-3.630321e+00	8.312573e+01
2.590000e-06	-5.787653e-07	1.181447e-09	-4.003824e+00	7.570119e+01
2.600000e-06	-6.323962e-07	1.066231e-09	-4.374835e+00	6.798549e+01
2.610000e-06	-6.855900e-07	9.433542e-10	-4.742824e+00	5.997642e+01
2.620000e-06	-7.382889e-07	8.151236e-10	-5.107387e+00	5.167375e+01
2.630000e-06	-7.905577e-07	6.852691e-10	-5.468977e+00	4.307162e+01
2.640000e-06	-8.424038e-07	5.532769e-10	-5.827641e+00	3.415329e+01
2.650000e-06	-8.939270e-07	4.140764e-10	-6.184072e+00	2.489041e+01
2.660000e-06	-9.451785e-07	2.667505e-10	-6.538623e+00	1.524702e+01
2.670000e-06	-9.960679e-07	1.140358e-10	-6.890669e+00	5.187076e+00
2.680000e-06	-1.046583e-06	-4.414863e-11	-7.240126e+00	-5.317382e+00
2.690000e-06	-1.096739e-06	-2.106405e-10	-7.587100e+00	-1.627986e+01
2.700000e-06	-1.146477e-06	-3.843536e-10	-7.931181e+00	-2.769648e+01
2.710000e-06	-1.195771e-06	-5.629967e-10	-8.272193e+00	-3.954638e+01
2.720000e-06	-1.244599e-06	-7.482616e-10	-8.609975e+00	-5.179408e+01
2.730000e-06	-1.292808e-06	-9.413611e-10	-8.943476e+00	-6.439171e+01
2.740000e-06	-1.340194e-06	-1.140016e-09	-9.271292e+00	-7.727946e+01
2.750000e-06	-1.386851e-06	-1.342415e-09	-9.594057e+00	-9.038407e+01
2.760000e-06	-1.432963e-06	-1.547030e-09	-9.913055e+00	-1.036164e+02
2.770000e-06	-1.478604e-06	-1.751567e-09	-1.022879e+01	-1.168702e+02
2.780000e-06	-1.523934e-06	-1.955579e-09	-1.054238e+01	-1.300247e+02
2.790000e-06	-1.568960e-06	-2.155189e-09	-1.085386e+01	-1.429510e+02
2.800000e-06	-1.613476e-06	-2.346271e-09	-1.116182e+01	-1.555230e+02
2.810000e-06	-1.657341e-06	-2.530153e-09	-1.146527e+01	-1.676294e+02
2.820000e-06	-1.700723e-06	-2.707513e-09	-1.176539e+01	-1.791839e+02
2.830000e-06	-1.743749e-06	-2.875492e-09	-1.206303e+01	-1.901307e+02
2.840000e-06	-1.786285e-06	-3.033694e-09	-1.235729e+01	-2.004440e+02
2.850000e-06	-1.828191e-06	-3.184312e-09	-1.264719e+01	-2.101216e+02
2.860000e-06	-1.869497e-06	-3.325643e-09	-1.293294e+01	-2.191756e+02
2.870000e-06	-1.910198e-06	-3.455527e-09	-1.321450e+01	-2.276236e+02
2.880000e-06	-1.950168e-06	-3.574792e-09	-1.349101e+01	-2.354833e+02
2.890000e-06	-1.989551e-06	-3.686304e-09	-1.376346e+01	-2.427719e+02
2.900000e-06	-2.028467e-06	-3.790283e-09	-1.403268e+01	-2.495101e+02
2.910000e-06	-2.066667e-06	-3.887747e-09	-1.429693e+01	-2.557270e+02
2.920000e-06	-2.103814e-06	-3.978588e-09	-1.455391e+01	-2.614645e+02
2.930000e-06	-2.139940e-06	-4.061764e-09	-1.480383e+01	-2.667766e+02
2.940000e-06	-2.175340e-06	-4.139321e-09	-1.504872e+01	-2.717244e+02
