# Temperatura_=_16.99
# Concentracion g/m^3_=_13400.0
# C_Vs_to_Am_M_A/Vsm_=_65563218390.804596
# pendiente_HvsI_1/m_=_3716.3
# ordenada_HvsI_A/m_=_1297.0
# frecuencia_Hz_=_300848.67272576335

Tiempo_(s)	Campo_(V.s)	Magnetizacion_(V.s)	Campo_(kA/m)	Magnetizacion_(A/m)
0.000000e+00	-2.859117e-06	-5.354059e-09	-1.980149e+01	-3.499274e+02
1.000000e-08	-2.858598e-06	-5.351369e-09	-1.979790e+01	-3.499641e+02
2.000000e-08	-2.857313e-06	-5.346076e-09	-1.978900e+01	-3.499287e+02
3.000000e-08	-2.855019e-06	-5.342344e-09	-1.977311e+01	-3.498267e+02
4.000000e-08	-2.851468e-06	-5.339951e-09	-1.974852e+01	-3.496594e+02
5.000000e-08	-2.846947e-06	-5.337838e-09	-1.971721e+01	-3.494236e+02
6.000000e-08	-2.841655e-06	-5.334241e-09	-1.968056e+01	-3.491125e+02
7.000000e-08	-2.835437e-06	-5.333108e-09	-1.963749e+01	-3.487204e+02
8.000000e-08	-2.828268e-06	-5.328275e-09	-1.958784e+01	-3.482470e+02
9.000000e-08	-2.820074e-06	-5.314905e-09	-1.953109e+01	-3.477004e+02
1.000000e-07	-2.810563e-06	-5.292565e-09	-1.946522e+01	-3.470967e+02
1.100000e-07	-2.799563e-06	-5.299619e-09	-1.938904e+01	-3.464564e+02
1.200000e-07	-2.787494e-06	-5.293459e-09	-1.930545e+01	-3.457984e+02
1.300000e-07	-2.774743e-06	-5.265391e-09	-1.921714e+01	-3.451338e+02
1.400000e-07	-2.761080e-06	-5.246786e-09	-1.912252e+01	-3.444624e+02
1.500000e-07	-2.746389e-06	-5.265892e-09	-1.902077e+01	-3.437727e+02
1.600000e-07	-2.730703e-06	-5.253524e-09	-1.891213e+01	-3.430451e+02
1.700000e-07	-2.713680e-06	-5.214822e-09	-1.879423e+01	-3.422580e+02
1.800000e-07	-2.695449e-06	-5.241034e-09	-1.866797e+01	-3.413937e+02
1.900000e-07	-2.676544e-06	-5.223518e-09	-1.853704e+01	-3.404424e+02
2.000000e-07	-2.656904e-06	-5.171115e-09	-1.840102e+01	-3.394029e+02
2.100000e-07	-2.636351e-06	-5.167657e-09	-1.825868e+01	-3.382807e+02
2.200000e-07	-2.614951e-06	-5.160863e-09	-1.811046e+01	-3.370838e+02
2.300000e-07	-2.592688e-06	-5.120688e-09	-1.795627e+01	-3.358192e+02
2.400000e-07	-2.569464e-06	-5.118870e-09	-1.779543e+01	-3.344899e+02
2.500000e-07	-2.545363e-06	-5.106717e-09	-1.762852e+01	-3.330951e+02
2.600000e-07	-2.520523e-06	-5.064504e-09	-1.745648e+01	-3.316314e+02
2.700000e-07	-2.494784e-06	-5.039318e-09	-1.727822e+01	-3.300952e+02
2.800000e-07	-2.467893e-06	-5.027414e-09	-1.709198e+01	-3.284845e+02
2.900000e-07	-2.439939e-06	-4.989164e-09	-1.689838e+01	-3.267997e+02
3.000000e-07	-2.411114e-06	-4.957619e-09	-1.669874e+01	-3.250424e+02
3.100000e-07	-2.381495e-06	-4.940395e-09	-1.649361e+01	-3.232146e+02
3.200000e-07	-2.351168e-06	-4.912867e-09	-1.628358e+01	-3.213172e+02
3.300000e-07	-2.320109e-06	-4.894045e-09	-1.606847e+01	-3.193502e+02
3.400000e-07	-2.288244e-06	-4.850251e-09	-1.584777e+01	-3.173135e+02
3.500000e-07	-2.255691e-06	-4.815082e-09	-1.562233e+01	-3.152086e+02
3.600000e-07	-2.222506e-06	-4.789066e-09	-1.539249e+01	-3.130397e+02
3.700000e-07	-2.188418e-06	-4.752450e-09	-1.515641e+01	-3.108127e+02
3.800000e-07	-2.153187e-06	-4.720684e-09	-1.491241e+01	-3.085343e+02
3.900000e-07	-2.116983e-06	-4.694605e-09	-1.466167e+01	-3.062083e+02
4.000000e-07	-2.080170e-06	-4.658852e-09	-1.440671e+01	-3.038342e+02
4.100000e-07	-2.042782e-06	-4.620928e-09	-1.414777e+01	-3.014062e+02
4.200000e-07	-2.004625e-06	-4.578572e-09	-1.388350e+01	-2.989153e+02
4.300000e-07	-1.965711e-06	-4.529770e-09	-1.361400e+01	-2.963528e+02
4.400000e-07	-1.926098e-06	-4.498893e-09	-1.333965e+01	-2.937143e+02
4.500000e-07	-1.885852e-06	-4.462559e-09	-1.306091e+01	-2.910028e+02
4.600000e-07	-1.845197e-06	-4.420651e-09	-1.277935e+01	-2.882285e+02
4.700000e-07	-1.804126e-06	-4.379033e-09	-1.249490e+01	-2.854053e+02
4.800000e-07	-1.762219e-06	-4.337848e-09	-1.220467e+01	-2.825455e+02
4.900000e-07	-1.719226e-06	-4.285446e-09	-1.190691e+01	-2.796539e+02
5.000000e-07	-1.675305e-06	-4.230752e-09	-1.160272e+01	-2.767247e+02
5.100000e-07	-1.630845e-06	-4.188569e-09	-1.129480e+01	-2.737423e+02
5.200000e-07	-1.586035e-06	-4.149020e-09	-1.098446e+01	-2.706856e+02
5.300000e-07	-1.540727e-06	-4.106972e-09	-1.067067e+01	-2.675359e+02
5.400000e-07	-1.494852e-06	-4.056920e-09	-1.035295e+01	-2.642833e+02
5.500000e-07	-1.448441e-06	-4.003160e-09	-1.003152e+01	-2.609308e+02
5.600000e-07	-1.401506e-06	-3.943491e-09	-9.706463e+00	-2.574931e+02
5.700000e-07	-1.354036e-06	-3.889714e-09	-9.377699e+00	-2.539907e+02
5.800000e-07	-1.306095e-06	-3.837004e-09	-9.045673e+00	-2.504415e+02
5.900000e-07	-1.257810e-06	-3.783141e-09	-8.711261e+00	-2.468528e+02
6.000000e-07	-1.209185e-06	-3.731356e-09	-8.374499e+00	-2.432181e+02
6.100000e-07	-1.160119e-06	-3.679361e-09	-8.034683e+00	-2.395186e+02
6.200000e-07	-1.110509e-06	-3.622032e-09	-7.691096e+00	-2.357311e+02
6.300000e-07	-1.060273e-06	-3.554412e-09	-7.343172e+00	-2.318369e+02
6.400000e-07	-1.009443e-06	-3.487962e-09	-6.991139e+00	-2.278307e+02
6.500000e-07	-9.580621e-07	-3.424171e-09	-6.635287e+00	-2.237234e+02
6.600000e-07	-9.061928e-07	-3.363329e-09	-6.276053e+00	-2.195393e+02
6.700000e-07	-8.540147e-07	-3.300204e-09	-5.914681e+00	-2.153065e+02
6.800000e-07	-8.015555e-07	-3.235763e-09	-5.551363e+00	-2.110463e+02
6.900000e-07	-7.488321e-07	-3.170856e-09	-5.186215e+00	-2.067637e+02
7.000000e-07	-6.958805e-07	-3.104550e-09	-4.819485e+00	-2.024443e+02
7.100000e-07	-6.426067e-07	-3.035765e-09	-4.450525e+00	-1.980583e+02
7.200000e-07	-5.890733e-07	-2.963718e-09	-4.079767e+00	-1.935706e+02
7.300000e-07	-5.353553e-07	-2.891425e-09	-3.707730e+00	-1.889529e+02
7.400000e-07	-4.814433e-07	-2.816706e-09	-3.334350e+00	-1.841938e+02
7.500000e-07	-4.273610e-07	-2.741188e-09	-2.959790e+00	-1.793016e+02
7.600000e-07	-3.731272e-07	-2.663968e-09	-2.584181e+00	-1.742999e+02
7.700000e-07	-3.188029e-07	-2.586509e-09	-2.207945e+00	-1.692168e+02
7.800000e-07	-2.643884e-07	-2.507252e-09	-1.831085e+00	-1.640722e+02
7.900000e-07	-2.098800e-07	-2.426905e-09	-1.453574e+00	-1.588678e+02
8.000000e-07	-1.553025e-07	-2.347373e-09	-1.075584e+00	-1.535847e+02
8.100000e-07	-1.006782e-07	-2.264822e-09	-6.972708e-01	-1.481881e+02
8.200000e-07	-4.608067e-08	-2.179390e-09	-3.191426e-01	-1.426390e+02
8.300000e-07	8.512999e-09	-2.090692e-09	5.895880e-02	-1.369071e+02
8.400000e-07	6.315890e-08	-1.997829e-09	4.374220e-01	-1.309801e+02
8.500000e-07	1.178092e-07	-1.901003e-09	8.159153e-01	-1.248664e+02
8.600000e-07	1.723958e-07	-1.805575e-09	1.193968e+00	-1.185895e+02
8.700000e-07	2.269069e-07	-1.710523e-09	1.571498e+00	-1.121763e+02
8.800000e-07	2.813718e-07	-1.614125e-09	1.948707e+00	-1.056446e+02
8.900000e-07	3.358001e-07	-1.515329e-09	2.325663e+00	-9.899374e+01
9.000000e-07	3.900914e-07	-1.410232e-09	2.701671e+00	-9.220313e+01
9.100000e-07	4.441984e-07	-1.300482e-09	3.076402e+00	-8.523755e+01
9.200000e-07	4.981400e-07	-1.188091e-09	3.449987e+00	-7.805811e+01
9.300000e-07	5.519458e-07	-1.074346e-09	3.822632e+00	-7.063374e+01
9.400000e-07	6.055613e-07	-9.561785e-10	4.193958e+00	-6.294855e+01
9.500000e-07	6.588945e-07	-8.340431e-10	4.563330e+00	-5.500236e+01
9.600000e-07	7.119648e-07	-7.087512e-10	4.930881e+00	-4.680431e+01
9.700000e-07	7.648026e-07	-5.824596e-10	5.296822e+00	-3.836251e+01
9.800000e-07	8.173835e-07	-4.520657e-10	5.660983e+00	-2.967414e+01
9.900000e-07	8.696595e-07	-3.138645e-10	6.023033e+00	-2.072045e+01
1.000000e-06	9.216313e-07	-1.696572e-10	6.382976e+00	-1.146870e+01
1.010000e-06	9.731548e-07	-2.040002e-11	6.739815e+00	-1.880625e+00
1.020000e-06	1.024098e-06	1.322473e-10	7.092632e+00	8.076010e+00
1.030000e-06	1.074382e-06	2.898206e-10	7.440887e+00	1.841711e+01
1.040000e-06	1.124016e-06	4.537135e-10	7.784642e+00	2.913708e+01
1.050000e-06	1.173147e-06	6.260495e-10	8.124909e+00	4.021049e+01
1.060000e-06	1.221898e-06	8.026446e-10	8.462547e+00	5.159905e+01
1.070000e-06	1.270384e-06	9.792314e-10	8.798344e+00	6.326074e+01
1.080000e-06	1.318575e-06	1.158203e-09	9.132102e+00	7.515645e+01
1.090000e-06	1.366304e-06	1.343177e-09	9.462661e+00	8.725127e+01
1.100000e-06	1.413452e-06	1.532648e-09	9.789196e+00	9.950969e+01
1.110000e-06	1.460051e-06	1.721793e-09	1.011193e+01	1.118869e+02
1.120000e-06	1.506182e-06	1.910264e-09	1.043142e+01	1.243201e+02
1.130000e-06	1.551829e-06	2.098477e-09	1.074756e+01	1.367253e+02
1.140000e-06	1.596952e-06	2.286916e-09	1.106007e+01	1.489999e+02
1.150000e-06	1.641663e-06	2.471614e-09	1.136973e+01	1.610338e+02
1.160000e-06	1.686011e-06	2.647471e-09	1.167687e+01	1.727237e+02
1.170000e-06	1.729743e-06	2.816332e-09	1.197975e+01	1.839868e+02
1.180000e-06	1.772671e-06	2.980956e-09	1.227705e+01	1.947687e+02
1.190000e-06	1.814706e-06	3.139562e-09	1.256818e+01	2.050437e+02
1.200000e-06	1.855883e-06	3.288771e-09	1.285336e+01	2.148068e+02
1.210000e-06	1.896469e-06	3.427762e-09	1.313445e+01	2.240623e+02
1.220000e-06	1.936578e-06	3.560093e-09	1.341223e+01	2.328126e+02
1.230000e-06	1.976059e-06	3.687230e-09	1.368567e+01	2.410525e+02
1.240000e-06	2.014835e-06	3.805011e-09	1.395422e+01	2.487712e+02
1.250000e-06	2.052898e-06	3.910337e-09	1.421783e+01	2.559603e+02
1.260000e-06	2.090259e-06	4.005877e-09	1.447659e+01	2.626248e+02
1.270000e-06	2.127028e-06	4.098898e-09	1.473123e+01	2.687914e+02
1.280000e-06	2.163254e-06	4.189033e-09	1.498213e+01	2.745104e+02
1.290000e-06	2.198722e-06	4.271449e-09	1.522777e+01	2.798486e+02
1.300000e-06	2.233115e-06	4.346287e-09	1.546597e+01	2.848764e+02
1.310000e-06	2.266457e-06	4.417694e-09	1.569689e+01	2.896521e+02
1.320000e-06	2.299077e-06	4.486774e-09	1.592280e+01	2.942101e+02
1.330000e-06	2.331030e-06	4.552210e-09	1.614410e+01	2.985568e+02
1.340000e-06	2.362171e-06	4.612808e-09	1.635978e+01	3.026754e+02
1.350000e-06	2.392528e-06	4.669165e-09	1.657002e+01	3.065383e+02
1.360000e-06	2.422048e-06	4.722508e-09	1.677447e+01	3.101226e+02
1.370000e-06	2.450810e-06	4.770389e-09	1.697367e+01	3.134226e+02
1.380000e-06	2.478937e-06	4.813832e-09	1.716847e+01	3.164548e+02
1.390000e-06	2.506136e-06	4.856684e-09	1.735684e+01	3.192547e+02
1.400000e-06	2.532111e-06	4.897899e-09	1.753674e+01	3.218666e+02
1.410000e-06	2.556996e-06	4.933858e-09	1.770909e+01	3.243309e+02
1.420000e-06	2.581002e-06	4.966142e-09	1.787534e+01	3.266728e+02
1.430000e-06	2.604156e-06	4.999734e-09	1.803570e+01	3.288989e+02
1.440000e-06	2.626423e-06	5.033551e-09	1.818992e+01	3.309997e+02
1.450000e-06	2.647860e-06	5.062417e-09	1.833838e+01	3.329590e+02
1.460000e-06	2.668531e-06	5.084774e-09	1.848155e+01	3.347643e+02
1.470000e-06	2.688381e-06	5.105037e-09	1.861902e+01	3.364152e+02
1.480000e-06	2.707346e-06	5.127215e-09	1.875037e+01	3.379259e+02
1.490000e-06	2.725325e-06	5.150589e-09	1.887489e+01	3.393214e+02
1.500000e-06	2.742329e-06	5.172315e-09	1.899265e+01	3.406291e+02
1.510000e-06	2.758324e-06	5.192098e-09	1.910343e+01	3.418694e+02
1.520000e-06	2.773195e-06	5.211163e-09	1.920642e+01	3.430501e+02
1.530000e-06	2.787009e-06	5.227953e-09	1.930209e+01	3.441644e+02
1.540000e-06	2.799792e-06	5.241414e-09	1.939062e+01	3.451967e+02
1.550000e-06	2.811444e-06	5.251134e-09	1.947132e+01	3.461295e+02
1.560000e-06	2.821866e-06	5.259410e-09	1.954351e+01	3.469521e+02
1.570000e-06	2.831079e-06	5.270908e-09	1.960731e+01	3.476651e+02
1.580000e-06	2.839292e-06	5.286433e-09	1.966419e+01	3.482809e+02
1.590000e-06	2.846593e-06	5.300331e-09	1.971476e+01	3.488189e+02
1.600000e-06	2.852932e-06	5.308141e-09	1.975866e+01	3.492983e+02
1.610000e-06	2.858314e-06	5.312314e-09	1.979593e+01	3.497321e+02
1.620000e-06	2.862855e-06	5.317444e-09	1.982738e+01	3.501231e+02
1.630000e-06	2.866449e-06	5.322509e-09	1.985227e+01	3.504649e+02
1.640000e-06	2.868793e-06	5.324863e-09	1.986851e+01	3.507460e+02
1.650000e-06	2.869986e-06	5.327211e-09	1.987677e+01	3.509554e+02
1.660000e-06	2.870236e-06	5.331777e-09	1.987850e+01	3.510865e+02
1.670000e-06	2.869593e-06	5.336478e-09	1.987405e+01	3.511397e+02
1.680000e-06	2.868056e-06	5.336774e-09	1.986340e+01	3.511196e+02
1.690000e-06	2.865658e-06	5.333906e-09	1.984680e+01	3.510318e+02
1.700000e-06	2.862505e-06	5.332484e-09	1.982496e+01	3.508790e+02
1.710000e-06	2.858548e-06	5.332006e-09	1.979755e+01	3.506587e+02
1.720000e-06	2.853456e-06	5.327144e-09	1.976228e+01	3.503646e+02
1.730000e-06	2.847145e-06	5.310144e-09	1.971858e+01	3.499905e+02
1.740000e-06	2.839896e-06	5.303873e-09	1.966838e+01	3.495344e+02
1.750000e-06	2.831655e-06	5.305975e-09	1.961130e+01	3.490027e+02
1.760000e-06	2.821976e-06	5.305478e-09	1.954427e+01	3.484099e+02
1.770000e-06	2.810852e-06	5.277889e-09	1.946722e+01	3.477760e+02
1.780000e-06	2.799098e-06	5.267951e-09	1.938582e+01	3.471208e+02
1.790000e-06	2.787140e-06	5.289932e-09	1.930300e+01	3.464575e+02
1.800000e-06	2.774110e-06	5.256357e-09	1.921276e+01	3.457885e+02
1.810000e-06	2.759402e-06	5.222771e-09	1.911089e+01	3.451045e+02
1.820000e-06	2.743716e-06	5.245274e-09	1.900226e+01	3.443872e+02
1.830000e-06	2.727449e-06	5.262962e-09	1.888960e+01	3.436149e+02
1.840000e-06	2.710004e-06	5.222313e-09	1.876877e+01	3.427686e+02
1.850000e-06	2.691346e-06	5.219666e-09	1.863956e+01	3.418366e+02
1.860000e-06	2.672008e-06	5.242973e-09	1.850563e+01	3.408160e+02
1.870000e-06	2.651837e-06	5.189098e-09	1.836593e+01	3.397112e+02
1.880000e-06	2.630453e-06	5.167524e-09	1.821783e+01	3.385300e+02
1.890000e-06	2.608035e-06	5.181491e-09	1.806257e+01	3.372798e+02
1.900000e-06	2.584605e-06	5.124890e-09	1.790030e+01	3.359646e+02
1.910000e-06	2.560193e-06	5.102038e-09	1.773123e+01	3.345844e+02
1.920000e-06	2.535079e-06	5.113168e-09	1.755729e+01	3.331361e+02
1.930000e-06	2.509175e-06	5.075491e-09	1.737789e+01	3.316159e+02
1.940000e-06	2.482418e-06	5.049851e-09	1.719257e+01	3.300216e+02
1.950000e-06	2.454944e-06	5.036895e-09	1.700230e+01	3.283528e+02
1.960000e-06	2.426548e-06	4.998046e-09	1.680564e+01	3.266112e+02
1.970000e-06	2.396888e-06	4.964062e-09	1.660021e+01	3.247988e+02
1.980000e-06	2.366223e-06	4.938077e-09	1.638784e+01	3.229166e+02
1.990000e-06	2.334869e-06	4.906170e-09	1.617069e+01	3.209648e+02
2.000000e-06	2.302815e-06	4.891309e-09	1.594869e+01	3.189433e+02
2.010000e-06	2.269988e-06	4.853578e-09	1.572134e+01	3.168531e+02
2.020000e-06	2.236275e-06	4.814248e-09	1.548785e+01	3.146977e+02
2.030000e-06	2.201836e-06	4.795299e-09	1.524934e+01	3.124829e+02
2.040000e-06	2.166853e-06	4.747752e-09	1.500706e+01	3.102154e+02
2.050000e-06	2.131210e-06	4.704813e-09	1.476020e+01	3.078997e+02
2.060000e-06	2.094807e-06	4.673750e-09	1.450809e+01	3.055366e+02
2.070000e-06	2.057393e-06	4.630773e-09	1.424897e+01	3.031212e+02
2.080000e-06	2.018891e-06	4.604288e-09	1.398231e+01	3.006449e+02
2.090000e-06	1.979703e-06	4.569422e-09	1.371090e+01	2.980986e+02
2.100000e-06	1.940012e-06	4.515463e-09	1.343601e+01	2.954767e+02
2.110000e-06	1.899686e-06	4.479554e-09	1.315673e+01	2.927805e+02
2.120000e-06	1.858697e-06	4.432679e-09	1.287285e+01	2.900189e+02
2.130000e-06	1.817099e-06	4.382908e-09	1.258475e+01	2.872053e+02
2.140000e-06	1.774933e-06	4.346376e-09	1.229272e+01	2.843529e+02
2.150000e-06	1.732204e-06	4.304470e-09	1.199679e+01	2.814685e+02
2.160000e-06	1.688969e-06	4.263357e-09	1.169736e+01	2.785487e+02
2.170000e-06	1.645292e-06	4.208560e-09	1.139486e+01	2.755797e+02
2.180000e-06	1.601030e-06	4.156377e-09	1.108831e+01	2.725411e+02
2.190000e-06	1.556154e-06	4.112908e-09	1.077751e+01	2.694128e+02
2.200000e-06	1.510731e-06	4.062612e-09	1.046293e+01	2.661827e+02
2.210000e-06	1.464816e-06	4.014776e-09	1.014493e+01	2.628511e+02
2.220000e-06	1.418478e-06	3.966485e-09	9.824007e+00	2.594303e+02
2.230000e-06	1.371718e-06	3.911555e-09	9.500158e+00	2.559404e+02
2.240000e-06	1.324372e-06	3.857305e-09	9.172250e+00	2.524004e+02
2.250000e-06	1.276349e-06	3.797453e-09	8.839661e+00	2.488206e+02
2.260000e-06	1.227780e-06	3.737851e-09	8.503281e+00	2.451973e+02
2.270000e-06	1.178736e-06	3.683333e-09	8.163616e+00	2.415140e+02
2.280000e-06	1.129276e-06	3.626081e-09	7.821068e+00	2.377475e+02
2.290000e-06	1.079450e-06	3.572716e-09	7.475987e+00	2.338774e+02
2.300000e-06	1.029171e-06	3.514476e-09	7.127768e+00	2.298952e+02
2.310000e-06	9.783840e-07	3.451962e-09	6.776031e+00	2.258082e+02
2.320000e-06	9.273049e-07	3.386144e-09	6.422270e+00	2.216385e+02
2.330000e-06	8.760293e-07	3.316381e-09	6.067149e+00	2.174142e+02
2.340000e-06	8.244761e-07	3.252218e-09	5.710105e+00	2.131591e+02
2.350000e-06	7.725486e-07	3.188412e-09	5.350469e+00	2.088822e+02
2.360000e-06	7.201458e-07	3.123464e-09	4.987541e+00	2.045731e+02
2.370000e-06	6.672948e-07	3.060253e-09	4.621509e+00	2.002046e+02
2.380000e-06	6.139881e-07	2.997079e-09	4.252320e+00	1.957418e+02
2.390000e-06	5.602317e-07	2.930719e-09	3.880018e+00	1.911540e+02
2.400000e-06	5.061604e-07	2.857498e-09	3.505534e+00	1.864254e+02
2.410000e-06	4.518471e-07	2.781441e-09	3.129374e+00	1.815605e+02
2.420000e-06	3.973548e-07	2.708657e-09	2.751975e+00	1.765801e+02
2.430000e-06	3.427099e-07	2.634945e-09	2.373519e+00	1.715126e+02
2.440000e-06	2.879269e-07	2.555548e-09	1.994106e+00	1.663806e+02
2.450000e-06	2.330462e-07	2.473692e-09	1.614017e+00	1.611903e+02
2.460000e-06	1.780937e-07	2.396247e-09	1.233430e+00	1.559269e+02
2.470000e-06	1.231211e-07	2.320490e-09	8.527043e-01	1.505583e+02
2.480000e-06	6.813019e-08	2.235059e-09	4.718518e-01	1.450452e+02
2.490000e-06	1.312282e-08	2.144141e-09	9.088524e-02	1.393545e+02
2.500000e-06	-4.189503e-08	2.056722e-09	-2.901540e-01	1.334696e+02
2.510000e-06	-9.691314e-08	1.969370e-09	-6.711950e-01	1.273946e+02
2.520000e-06	-1.518887e-07	1.874056e-09	-1.051941e+00	1.211507e+02
2.530000e-06	-2.068451e-07	1.771423e-09	-1.432555e+00	1.147650e+02
2.540000e-06	-2.617810e-07	1.670634e-09	-1.813026e+00	1.082583e+02
2.550000e-06	-3.166422e-07	1.574269e-09	-2.192980e+00	1.016344e+02
2.560000e-06	-3.713675e-07	1.476395e-09	-2.571994e+00	9.487668e+01
2.570000e-06	-4.259400e-07	1.370660e-09	-2.949948e+00	8.795224e+01
2.580000e-06	-4.803213e-07	1.259715e-09	-3.326579e+00	8.082198e+01
2.590000e-06	-5.344189e-07	1.146139e-09	-3.701245e+00	7.345232e+01
2.600000e-06	-5.881850e-07	1.031395e-09	-4.073615e+00	6.582383e+01
2.610000e-06	-6.415224e-07	9.138607e-10	-4.443016e+00	5.793328e+01
2.620000e-06	-6.943727e-07	7.897408e-10	-4.809043e+00	4.978863e+01
2.630000e-06	-7.467969e-07	6.606611e-10	-5.172120e+00	4.139911e+01
2.640000e-06	-7.988626e-07	5.294296e-10	-5.532713e+00	3.276491e+01
2.650000e-06	-8.505882e-07	3.961659e-10	-5.890951e+00	2.387076e+01
2.660000e-06	-9.019908e-07	2.578884e-10	-6.246952e+00	1.468639e+01
2.670000e-06	-9.531142e-07	1.128197e-10	-6.601019e+00	5.173800e+00
2.680000e-06	-1.003918e-06	-3.926779e-11	-6.952872e+00	-4.701529e+00
2.690000e-06	-1.054364e-06	-1.963451e-10	-7.302250e+00	-1.495964e+01
2.700000e-06	-1.104384e-06	-3.577520e-10	-7.648672e+00	-2.559966e+01
2.710000e-06	-1.153928e-06	-5.226064e-10	-7.991801e+00	-3.659994e+01
2.720000e-06	-1.203056e-06	-6.913898e-10	-8.332048e+00	-4.792420e+01
2.730000e-06	-1.251712e-06	-8.669900e-10	-8.669027e+00	-5.953050e+01
2.740000e-06	-1.299693e-06	-1.048656e-09	-9.001335e+00	-7.137880e+01
2.750000e-06	-1.346884e-06	-1.234077e-09	-9.328164e+00	-8.343350e+01
2.760000e-06	-1.393348e-06	-1.422012e-09	-9.649961e+00	-9.565986e+01
2.770000e-06	-1.439276e-06	-1.614375e-09	-9.968045e+00	-1.080158e+02
2.780000e-06	-1.484836e-06	-1.808779e-09	-1.028358e+01	-1.204431e+02
2.790000e-06	-1.530092e-06	-1.999006e-09	-1.059701e+01	-1.328621e+02
2.800000e-06	-1.574978e-06	-2.183314e-09	-1.090788e+01	-1.451736e+02
2.810000e-06	-1.619323e-06	-2.364734e-09	-1.121501e+01	-1.572679e+02
2.820000e-06	-1.663073e-06	-2.546034e-09	-1.151801e+01	-1.690391e+02
2.830000e-06	-1.706369e-06	-2.722660e-09	-1.181787e+01	-1.803989e+02
2.840000e-06	-1.749301e-06	-2.889426e-09	-1.211520e+01	-1.912867e+02
2.850000e-06	-1.791711e-06	-3.047941e-09	-1.240892e+01	-2.016709e+02
2.860000e-06	-1.833485e-06	-3.202863e-09	-1.269824e+01	-2.115432e+02
2.870000e-06	-1.874670e-06	-3.351229e-09	-1.298347e+01	-2.209068e+02
2.880000e-06	-1.915232e-06	-3.485600e-09	-1.326440e+01	-2.297652e+02
2.890000e-06	-1.955107e-06	-3.608175e-09	-1.354056e+01	-2.381150e+02
2.900000e-06	-1.994409e-06	-3.726042e-09	-1.381275e+01	-2.459460e+02
2.910000e-06	-2.033164e-06	-3.839997e-09	-1.408116e+01	-2.532484e+02
2.920000e-06	-2.071092e-06	-3.948165e-09	-1.434384e+01	-2.600236e+02
2.930000e-06	-2.107962e-06	-4.047226e-09	-1.459919e+01	-2.662931e+02
2.940000e-06	-2.143882e-06	-4.138321e-09	-1.484796e+01	-2.721025e+02
