# Temperatura_=_21.17
# Concentracion g/m^3_=_13400.0
# C_Vs_to_Am_M_A/Vsm_=_65563218390.804596
# pendiente_HvsI_1/m_=_3716.3
# ordenada_HvsI_A/m_=_1297.0
# frecuencia_Hz_=_300842.8069475487

Tiempo_(s)	Campo_(V.s)	Magnetizacion_(V.s)	Campo_(kA/m)	Magnetizacion_(A/m)
0.000000e+00	-2.857585e-06	-5.041830e-09	-1.980084e+01	-3.298225e+02
1.000000e-08	-2.856621e-06	-5.036479e-09	-1.979416e+01	-3.298101e+02
2.000000e-08	-2.854642e-06	-5.031934e-09	-1.978045e+01	-3.297657e+02
3.000000e-08	-2.851402e-06	-5.031948e-09	-1.975800e+01	-3.296727e+02
4.000000e-08	-2.847115e-06	-5.032834e-09	-1.972829e+01	-3.295086e+02
5.000000e-08	-2.842023e-06	-5.029322e-09	-1.969301e+01	-3.292531e+02
6.000000e-08	-2.836101e-06	-5.028451e-09	-1.965197e+01	-3.288974e+02
7.000000e-08	-2.829246e-06	-5.030966e-09	-1.960448e+01	-3.284477e+02
8.000000e-08	-2.821332e-06	-5.013395e-09	-1.954963e+01	-3.279253e+02
9.000000e-08	-2.812188e-06	-4.969311e-09	-1.948627e+01	-3.273597e+02
1.000000e-07	-2.801627e-06	-4.967849e-09	-1.941310e+01	-3.267791e+02
1.100000e-07	-2.789893e-06	-5.001701e-09	-1.933179e+01	-3.262008e+02
1.200000e-07	-2.777436e-06	-5.009910e-09	-1.924547e+01	-3.256265e+02
1.300000e-07	-2.764065e-06	-4.923272e-09	-1.915282e+01	-3.250418e+02
1.400000e-07	-2.749648e-06	-4.943918e-09	-1.905292e+01	-3.244231e+02
1.500000e-07	-2.734311e-06	-4.982074e-09	-1.894665e+01	-3.237458e+02
1.600000e-07	-2.717674e-06	-4.938867e-09	-1.883137e+01	-3.229940e+02
1.700000e-07	-2.699709e-06	-4.915771e-09	-1.870688e+01	-3.221641e+02
1.800000e-07	-2.680990e-06	-4.900998e-09	-1.857717e+01	-3.212651e+02
1.900000e-07	-2.661590e-06	-4.903458e-09	-1.844275e+01	-3.203124e+02
2.000000e-07	-2.641280e-06	-4.862509e-09	-1.830202e+01	-3.193199e+02
2.100000e-07	-2.620115e-06	-4.866364e-09	-1.815536e+01	-3.182938e+02
2.200000e-07	-2.598183e-06	-4.868307e-09	-1.800338e+01	-3.172294e+02
2.300000e-07	-2.575312e-06	-4.835465e-09	-1.784491e+01	-3.161136e+02
2.400000e-07	-2.551493e-06	-4.808266e-09	-1.767986e+01	-3.149307e+02
2.500000e-07	-2.526911e-06	-4.795045e-09	-1.750953e+01	-3.136699e+02
2.600000e-07	-2.501472e-06	-4.765005e-09	-1.733325e+01	-3.123299e+02
2.700000e-07	-2.475069e-06	-4.751833e-09	-1.715030e+01	-3.109195e+02
2.800000e-07	-2.447580e-06	-4.713367e-09	-1.695983e+01	-3.094540e+02
2.900000e-07	-2.419012e-06	-4.711330e-09	-1.676187e+01	-3.079475e+02
3.000000e-07	-2.389615e-06	-4.697867e-09	-1.655817e+01	-3.064067e+02
3.100000e-07	-2.359514e-06	-4.643107e-09	-1.634959e+01	-3.048274e+02
3.200000e-07	-2.328700e-06	-4.642544e-09	-1.613608e+01	-3.031959e+02
3.300000e-07	-2.297049e-06	-4.619290e-09	-1.591676e+01	-3.014950e+02
3.400000e-07	-2.264682e-06	-4.574217e-09	-1.569248e+01	-2.997116e+02
3.500000e-07	-2.231755e-06	-4.549067e-09	-1.546433e+01	-2.978428e+02
3.600000e-07	-2.198040e-06	-4.550184e-09	-1.523070e+01	-2.958982e+02
3.700000e-07	-2.163172e-06	-4.496192e-09	-1.498910e+01	-2.938967e+02
3.800000e-07	-2.127229e-06	-4.464684e-09	-1.474004e+01	-2.918588e+02
3.900000e-07	-2.090605e-06	-4.461441e-09	-1.448627e+01	-2.897984e+02
4.000000e-07	-2.053371e-06	-4.418006e-09	-1.422826e+01	-2.877171e+02
4.100000e-07	-2.015386e-06	-4.363247e-09	-1.396506e+01	-2.856035e+02
4.200000e-07	-1.976668e-06	-4.337978e-09	-1.369677e+01	-2.834381e+02
4.300000e-07	-1.937250e-06	-4.317869e-09	-1.342364e+01	-2.812015e+02
4.400000e-07	-1.897176e-06	-4.273875e-09	-1.314595e+01	-2.788832e+02
4.500000e-07	-1.856664e-06	-4.242466e-09	-1.286524e+01	-2.764861e+02
4.600000e-07	-1.815812e-06	-4.203245e-09	-1.258217e+01	-2.740258e+02
4.700000e-07	-1.774272e-06	-4.167847e-09	-1.229433e+01	-2.715237e+02
4.800000e-07	-1.731707e-06	-4.119107e-09	-1.199938e+01	-2.689975e+02
4.900000e-07	-1.688129e-06	-4.077456e-09	-1.169742e+01	-2.664529e+02
5.000000e-07	-1.643861e-06	-4.043231e-09	-1.139068e+01	-2.638797e+02
5.100000e-07	-1.599173e-06	-4.005999e-09	-1.108102e+01	-2.612546e+02
5.200000e-07	-1.554022e-06	-3.967647e-09	-1.076816e+01	-2.585496e+02
5.300000e-07	-1.508353e-06	-3.927803e-09	-1.045171e+01	-2.557427e+02
5.400000e-07	-1.462139e-06	-3.878353e-09	-1.013148e+01	-2.528266e+02
5.500000e-07	-1.415418e-06	-3.816872e-09	-9.807747e+00	-2.498113e+02
5.600000e-07	-1.368200e-06	-3.781815e-09	-9.480564e+00	-2.467201e+02
5.700000e-07	-1.320418e-06	-3.736950e-09	-9.149466e+00	-2.435795e+02
5.800000e-07	-1.272172e-06	-3.684919e-09	-8.815160e+00	-2.404081e+02
5.900000e-07	-1.223608e-06	-3.642297e-09	-8.478653e+00	-2.372080e+02
6.000000e-07	-1.174718e-06	-3.599482e-09	-8.139885e+00	-2.339629e+02
6.100000e-07	-1.125360e-06	-3.540253e-09	-7.797870e+00	-2.306444e+02
6.200000e-07	-1.075333e-06	-3.477788e-09	-7.451223e+00	-2.272229e+02
6.300000e-07	-1.024688e-06	-3.423812e-09	-7.100288e+00	-2.236797e+02
6.400000e-07	-9.734203e-07	-3.365817e-09	-6.745046e+00	-2.200154e+02
6.500000e-07	-9.215692e-07	-3.313224e-09	-6.385757e+00	-2.162503e+02
6.600000e-07	-8.693916e-07	-3.258472e-09	-6.024207e+00	-2.124174e+02
6.700000e-07	-8.169785e-07	-3.202967e-09	-5.661026e+00	-2.085497e+02
6.800000e-07	-7.643201e-07	-3.139771e-09	-5.296144e+00	-2.046671e+02
6.900000e-07	-7.113961e-07	-3.075432e-09	-4.929421e+00	-2.007681e+02
7.000000e-07	-6.582417e-07	-3.012456e-09	-4.561103e+00	-1.968297e+02
7.100000e-07	-6.048682e-07	-2.949826e-09	-4.191266e+00	-1.928148e+02
7.200000e-07	-5.512541e-07	-2.886002e-09	-3.819762e+00	-1.886854e+02
7.300000e-07	-4.973704e-07	-2.818443e-09	-3.446390e+00	-1.844156e+02
7.400000e-07	-4.432243e-07	-2.750102e-09	-3.071200e+00	-1.799995e+02
7.500000e-07	-3.889504e-07	-2.676235e-09	-2.695124e+00	-1.754518e+02
7.600000e-07	-3.346128e-07	-2.604417e-09	-2.318607e+00	-1.707989e+02
7.700000e-07	-2.801933e-07	-2.532581e-09	-1.941521e+00	-1.660672e+02
7.800000e-07	-2.257023e-07	-2.460985e-09	-1.563941e+00	-1.612704e+02
7.900000e-07	-1.711560e-07	-2.385927e-09	-1.185978e+00	-1.564025e+02
8.000000e-07	-1.165958e-07	-2.308703e-09	-8.079180e-01	-1.514391e+02
8.100000e-07	-6.198591e-08	-2.228183e-09	-4.295141e-01	-1.463451e+02
8.200000e-07	-7.347793e-09	-2.143462e-09	-5.091449e-02	-1.410876e+02
8.300000e-07	4.727699e-08	-2.059597e-09	3.275928e-01	-1.356463e+02
8.400000e-07	1.018881e-07	-1.974987e-09	7.060054e-01	-1.300201e+02
8.500000e-07	1.564647e-07	-1.889832e-09	1.084179e+00	-1.242240e+02
8.600000e-07	2.109991e-07	-1.798691e-09	1.462060e+00	-1.182811e+02
8.700000e-07	2.654938e-07	-1.707808e-09	1.839666e+00	-1.122100e+02
8.800000e-07	3.198907e-07	-1.615247e-09	2.216593e+00	-1.060143e+02
8.900000e-07	3.741770e-07	-1.515680e-09	2.592755e+00	-9.967772e+01
9.000000e-07	4.283626e-07	-1.410661e-09	2.968220e+00	-9.316674e+01
9.100000e-07	4.823696e-07	-1.304978e-09	3.342446e+00	-8.643907e+01
9.200000e-07	5.361561e-07	-1.200035e-09	3.715144e+00	-7.945517e+01
9.300000e-07	5.897140e-07	-1.088844e-09	4.086259e+00	-7.218757e+01
9.400000e-07	6.430971e-07	-9.729109e-10	4.456163e+00	-6.462486e+01
9.500000e-07	6.962002e-07	-8.542874e-10	4.824126e+00	-5.676892e+01
9.600000e-07	7.490176e-07	-7.337666e-10	5.190109e+00	-4.862682e+01
9.700000e-07	8.016452e-07	-6.042888e-10	5.554777e+00	-4.020094e+01
9.800000e-07	8.540290e-07	-4.675608e-10	5.917756e+00	-3.148129e+01
9.900000e-07	9.060553e-07	-3.276996e-10	6.278259e+00	-2.244317e+01
1.000000e-06	9.576440e-07	-1.823105e-10	6.635728e+00	-1.305081e+01
1.010000e-06	1.008754e-06	-2.849621e-11	6.989877e+00	-3.265759e+00
1.020000e-06	1.059193e-06	1.313625e-10	7.339385e+00	6.943377e+00
1.030000e-06	1.108955e-06	2.932060e-10	7.684194e+00	1.759293e+01
1.040000e-06	1.158168e-06	4.604890e-10	8.025206e+00	2.868024e+01
1.050000e-06	1.206989e-06	6.337368e-10	8.363495e+00	4.018408e+01
1.060000e-06	1.255551e-06	8.153683e-10	8.699989e+00	5.206794e+01
1.070000e-06	1.303821e-06	1.003656e-09	9.034465e+00	6.428366e+01
1.080000e-06	1.351683e-06	1.195822e-09	9.366109e+00	7.677344e+01
1.090000e-06	1.399013e-06	1.389915e-09	9.694070e+00	8.946918e+01
1.100000e-06	1.445812e-06	1.586009e-09	1.001835e+01	1.022902e+02
1.110000e-06	1.492106e-06	1.782658e-09	1.033913e+01	1.151413e+02
1.120000e-06	1.537866e-06	1.972907e-09	1.065622e+01	1.279138e+02
1.130000e-06	1.583128e-06	2.158374e-09	1.096984e+01	1.404905e+02
1.140000e-06	1.627997e-06	2.343826e-09	1.128076e+01	1.527546e+02
1.150000e-06	1.672507e-06	2.527813e-09	1.158917e+01	1.646006e+02
1.160000e-06	1.716501e-06	2.703905e-09	1.189402e+01	1.759436e+02
1.170000e-06	1.759726e-06	2.867834e-09	1.219353e+01	1.867249e+02
1.180000e-06	1.801970e-06	3.020546e-09	1.248625e+01	1.969118e+02
1.190000e-06	1.843297e-06	3.166706e-09	1.277261e+01	2.064930e+02
1.200000e-06	1.884033e-06	3.303947e-09	1.305489e+01	2.154711e+02
1.210000e-06	1.924217e-06	3.428426e-09	1.333333e+01	2.238557e+02
1.220000e-06	1.963758e-06	3.541579e-09	1.360732e+01	2.316595e+02
1.230000e-06	2.002689e-06	3.648596e-09	1.387708e+01	2.388988e+02
1.240000e-06	2.040926e-06	3.753113e-09	1.414203e+01	2.455962e+02
1.250000e-06	2.078465e-06	3.849525e-09	1.440214e+01	2.517850e+02
1.260000e-06	2.115427e-06	3.935508e-09	1.465826e+01	2.575103e+02
1.270000e-06	2.151812e-06	4.013969e-09	1.491039e+01	2.628272e+02
1.280000e-06	2.187424e-06	4.089995e-09	1.515715e+01	2.677934e+02
1.290000e-06	2.222030e-06	4.160949e-09	1.539694e+01	2.724610e+02
1.300000e-06	2.255612e-06	4.223578e-09	1.562963e+01	2.768677e+02
1.310000e-06	2.288404e-06	4.282042e-09	1.585686e+01	2.810332e+02
1.320000e-06	2.320509e-06	4.340953e-09	1.607932e+01	2.849598e+02
1.330000e-06	2.351851e-06	4.399448e-09	1.629650e+01	2.886392e+02
1.340000e-06	2.382454e-06	4.451588e-09	1.650855e+01	2.920620e+02
1.350000e-06	2.412267e-06	4.497023e-09	1.671513e+01	2.952263e+02
1.360000e-06	2.441296e-06	4.538388e-09	1.691628e+01	2.981431e+02
1.370000e-06	2.469703e-06	4.577982e-09	1.711312e+01	3.008358e+02
1.380000e-06	2.497171e-06	4.614865e-09	1.730345e+01	3.033355e+02
1.390000e-06	2.523361e-06	4.646993e-09	1.748493e+01	3.056730e+02
1.400000e-06	2.548472e-06	4.677609e-09	1.765893e+01	3.078717e+02
1.410000e-06	2.572730e-06	4.710312e-09	1.782702e+01	3.099440e+02
1.420000e-06	2.596121e-06	4.744307e-09	1.798910e+01	3.118918e+02
1.430000e-06	2.618630e-06	4.775263e-09	1.814507e+01	3.137114e+02
1.440000e-06	2.640285e-06	4.799562e-09	1.829512e+01	3.153999e+02
1.450000e-06	2.661157e-06	4.817199e-09	1.843975e+01	3.169603e+02
1.460000e-06	2.681267e-06	4.833402e-09	1.857910e+01	3.184030e+02
1.470000e-06	2.700519e-06	4.852295e-09	1.871249e+01	3.197439e+02
1.480000e-06	2.718797e-06	4.873119e-09	1.883915e+01	3.209996e+02
1.490000e-06	2.736066e-06	4.893902e-09	1.895881e+01	3.221821e+02
1.500000e-06	2.752318e-06	4.913674e-09	1.907142e+01	3.232953e+02
1.510000e-06	2.767494e-06	4.932244e-09	1.917658e+01	3.243356e+02
1.520000e-06	2.781648e-06	4.947033e-09	1.927466e+01	3.252950e+02
1.530000e-06	2.794771e-06	4.956329e-09	1.936559e+01	3.261664e+02
1.540000e-06	2.806770e-06	4.962627e-09	1.944873e+01	3.269482e+02
1.550000e-06	2.817493e-06	4.969903e-09	1.952304e+01	3.276456e+02
1.560000e-06	2.826950e-06	4.980940e-09	1.958856e+01	3.282691e+02
1.570000e-06	2.835445e-06	4.994381e-09	1.964743e+01	3.288301e+02
1.580000e-06	2.843063e-06	5.006794e-09	1.970021e+01	3.293362e+02
1.590000e-06	2.849701e-06	5.015482e-09	1.974621e+01	3.297878e+02
1.600000e-06	2.855396e-06	5.020295e-09	1.978567e+01	3.301789e+02
1.610000e-06	2.860227e-06	5.023364e-09	1.981915e+01	3.305006e+02
1.620000e-06	2.864127e-06	5.024867e-09	1.984617e+01	3.307465e+02
1.630000e-06	2.866810e-06	5.025840e-09	1.986476e+01	3.309174e+02
1.640000e-06	2.868271e-06	5.028590e-09	1.987489e+01	3.310225e+02
1.650000e-06	2.868793e-06	5.032267e-09	1.987850e+01	3.310771e+02
1.660000e-06	2.868435e-06	5.033262e-09	1.987603e+01	3.310963e+02
1.670000e-06	2.867173e-06	5.031581e-09	1.986728e+01	3.310887e+02
1.680000e-06	2.865010e-06	5.030290e-09	1.985229e+01	3.310510e+02
1.690000e-06	2.862017e-06	5.031308e-09	1.983155e+01	3.309683e+02
1.700000e-06	2.858261e-06	5.031803e-09	1.980552e+01	3.308185e+02
1.710000e-06	2.853467e-06	5.026207e-09	1.977231e+01	3.305805e+02
1.720000e-06	2.847495e-06	5.007066e-09	1.973093e+01	3.302426e+02
1.730000e-06	2.840577e-06	4.997241e-09	1.968299e+01	3.298086e+02
1.740000e-06	2.832755e-06	5.012394e-09	1.962879e+01	3.292971e+02
1.750000e-06	2.823595e-06	5.039137e-09	1.956532e+01	3.287371e+02
1.760000e-06	2.812818e-06	4.985798e-09	1.949064e+01	3.281574e+02
1.770000e-06	2.801173e-06	4.953608e-09	1.940995e+01	3.275782e+02
1.780000e-06	2.789364e-06	4.970480e-09	1.932812e+01	3.270038e+02
1.790000e-06	2.776776e-06	4.987511e-09	1.924090e+01	3.264226e+02
1.800000e-06	2.762538e-06	4.940462e-09	1.914224e+01	3.258118e+02
1.810000e-06	2.747127e-06	4.901049e-09	1.903546e+01	3.251466e+02
1.820000e-06	2.731144e-06	4.971214e-09	1.892470e+01	3.244087e+02
1.830000e-06	2.714066e-06	4.946308e-09	1.880636e+01	3.235924e+02
1.840000e-06	2.695744e-06	4.909393e-09	1.867941e+01	3.227048e+02
1.850000e-06	2.676672e-06	4.929856e-09	1.854725e+01	3.217604e+02
1.860000e-06	2.656814e-06	4.886576e-09	1.840965e+01	3.207743e+02
1.870000e-06	2.635715e-06	4.853363e-09	1.826346e+01	3.197543e+02
1.880000e-06	2.613517e-06	4.859348e-09	1.810964e+01	3.186976e+02
1.890000e-06	2.590426e-06	4.841569e-09	1.794964e+01	3.175921e+02
1.900000e-06	2.566310e-06	4.844332e-09	1.778253e+01	3.164223e+02
1.910000e-06	2.541440e-06	4.824059e-09	1.761020e+01	3.151758e+02
1.920000e-06	2.515836e-06	4.788090e-09	1.743278e+01	3.138495e+02
1.930000e-06	2.489334e-06	4.762624e-09	1.724915e+01	3.124508e+02
1.940000e-06	2.462161e-06	4.758039e-09	1.706086e+01	3.109939e+02
1.950000e-06	2.434149e-06	4.712358e-09	1.686676e+01	3.094940e+02
1.960000e-06	2.404860e-06	4.684018e-09	1.666381e+01	3.079593e+02
1.970000e-06	2.374454e-06	4.699841e-09	1.645312e+01	3.063876e+02
1.980000e-06	2.343267e-06	4.648948e-09	1.623702e+01	3.047668e+02
1.990000e-06	2.311369e-06	4.624893e-09	1.601599e+01	3.030795e+02
2.000000e-06	2.278779e-06	4.621534e-09	1.579017e+01	3.013114e+02
2.010000e-06	2.245399e-06	4.569270e-09	1.555887e+01	2.994575e+02
2.020000e-06	2.211206e-06	4.534925e-09	1.532194e+01	2.975253e+02
2.030000e-06	2.176392e-06	4.523072e-09	1.508071e+01	2.955324e+02
2.040000e-06	2.140978e-06	4.470958e-09	1.483531e+01	2.934997e+02
2.050000e-06	2.104843e-06	4.430300e-09	1.458493e+01	2.914428e+02
2.060000e-06	2.067774e-06	4.422144e-09	1.432806e+01	2.893658e+02
2.070000e-06	2.029610e-06	4.397668e-09	1.406362e+01	2.872593e+02
2.080000e-06	1.990637e-06	4.350561e-09	1.379357e+01	2.851046e+02
2.090000e-06	1.951093e-06	4.310920e-09	1.351956e+01	2.828819e+02
2.100000e-06	1.910945e-06	4.288614e-09	1.324136e+01	2.805784e+02
2.110000e-06	1.870122e-06	4.242634e-09	1.295849e+01	2.781946e+02
2.120000e-06	1.828654e-06	4.194265e-09	1.267115e+01	2.757441e+02
2.130000e-06	1.786671e-06	4.163661e-09	1.238024e+01	2.732479e+02
2.140000e-06	1.744145e-06	4.135980e-09	1.208557e+01	2.707252e+02
2.150000e-06	1.701109e-06	4.098127e-09	1.178736e+01	2.681842e+02
2.160000e-06	1.657630e-06	4.046006e-09	1.148608e+01	2.656175e+02
2.170000e-06	1.613572e-06	4.006847e-09	1.118080e+01	2.630037e+02
2.180000e-06	1.568895e-06	3.966557e-09	1.087122e+01	2.603149e+02
2.190000e-06	1.523669e-06	3.923323e-09	1.055784e+01	2.575273e+02
2.200000e-06	1.477915e-06	3.887731e-09	1.024080e+01	2.546305e+02
2.210000e-06	1.431742e-06	3.844895e-09	9.920857e+00	2.516315e+02
2.220000e-06	1.385102e-06	3.784866e-09	9.597678e+00	2.485519e+02
2.230000e-06	1.337923e-06	3.740052e-09	9.270767e+00	2.454184e+02
2.240000e-06	1.290154e-06	3.693163e-09	8.939763e+00	2.422518e+02
2.250000e-06	1.241740e-06	3.635005e-09	8.604294e+00	2.390575e+02
2.260000e-06	1.192850e-06	3.592284e-09	8.265521e+00	2.358223e+02
2.270000e-06	1.143531e-06	3.549717e-09	7.923780e+00	2.325193e+02
2.280000e-06	1.093799e-06	3.502309e-09	7.579173e+00	2.291180e+02
2.290000e-06	1.043672e-06	3.442936e-09	7.231832e+00	2.255971e+02
2.300000e-06	9.931065e-07	3.383811e-09	6.881455e+00	2.219535e+02
2.310000e-06	9.422005e-07	3.324152e-09	6.528717e+00	2.182042e+02
2.320000e-06	8.910262e-07	3.260477e-09	6.174118e+00	2.143808e+02
2.330000e-06	8.396065e-07	3.203017e-09	5.817820e+00	2.105174e+02
2.340000e-06	7.878827e-07	3.153761e-09	5.459414e+00	2.066369e+02
2.350000e-06	7.356511e-07	3.103117e-09	5.097490e+00	2.027420e+02
2.360000e-06	6.828727e-07	3.040990e-09	4.731777e+00	1.988131e+02
2.370000e-06	6.296684e-07	2.974699e-09	4.363112e+00	1.948149e+02
2.380000e-06	5.761247e-07	2.910029e-09	3.992096e+00	1.907083e+02
2.390000e-06	5.222179e-07	2.847810e-09	3.618563e+00	1.864646e+02
2.400000e-06	4.679798e-07	2.784317e-09	3.242736e+00	1.820741e+02
2.410000e-06	4.135320e-07	2.721323e-09	2.865455e+00	1.775482e+02
2.420000e-06	3.589678e-07	2.653411e-09	2.487367e+00	1.729120e+02
2.430000e-06	3.042843e-07	2.582479e-09	2.108453e+00	1.681929e+02
2.440000e-06	2.494555e-07	2.511849e-09	1.728533e+00	1.634075e+02
2.450000e-06	1.945449e-07	2.437779e-09	1.348045e+00	1.585537e+02
2.460000e-06	1.395904e-07	2.359827e-09	9.672531e-01	1.536098e+02
2.470000e-06	8.460774e-08	2.279642e-09	5.862658e-01	1.485418e+02
2.480000e-06	2.960770e-08	2.202595e-09	2.051583e-01	1.433154e+02
2.490000e-06	-2.540387e-08	2.123973e-09	-1.760290e-01	1.379077e+02
2.500000e-06	-8.039385e-08	2.040241e-09	-5.570668e-01	1.323137e+02
2.510000e-06	-1.353437e-07	1.952928e-09	-9.378263e-01	1.265464e+02
2.520000e-06	-1.902552e-07	1.864304e-09	-1.318321e+00	1.206281e+02
2.530000e-06	-2.451361e-07	1.772148e-09	-1.698602e+00	1.145791e+02
2.540000e-06	-2.999810e-07	1.674811e-09	-2.078635e+00	1.084062e+02
2.550000e-06	-3.546887e-07	1.577622e-09	-2.457716e+00	1.020969e+02
2.560000e-06	-4.092200e-07	1.479857e-09	-2.835576e+00	9.562009e+01
2.570000e-06	-4.636224e-07	1.378946e-09	-3.212543e+00	8.893426e+01
2.580000e-06	-5.178334e-07	1.273753e-09	-3.588183e+00	8.199859e+01
2.590000e-06	-5.716788e-07	1.167086e-09	-3.961289e+00	7.478297e+01
2.600000e-06	-6.250782e-07	1.055816e-09	-4.331306e+00	6.727314e+01
2.610000e-06	-6.781307e-07	9.368750e-10	-4.698918e+00	5.946908e+01
2.620000e-06	-7.307809e-07	8.120235e-10	-5.063743e+00	5.137767e+01
2.630000e-06	-7.829216e-07	6.825708e-10	-5.425037e+00	4.300279e+01
2.640000e-06	-8.346691e-07	5.504713e-10	-5.783608e+00	3.433702e+01
2.650000e-06	-8.861253e-07	4.148617e-10	-6.140159e+00	2.535818e+01
2.660000e-06	-9.373102e-07	2.754516e-10	-6.494830e+00	1.603197e+01
2.670000e-06	-9.882345e-07	1.295100e-10	-6.847696e+00	6.319688e+00
2.680000e-06	-1.038806e-06	-2.323121e-11	-7.198120e+00	-3.811990e+00
2.690000e-06	-1.088904e-06	-1.823095e-10	-7.545258e+00	-1.438251e+01
2.700000e-06	-1.138579e-06	-3.486176e-10	-7.889468e+00	-2.539268e+01
2.710000e-06	-1.187869e-06	-5.237886e-10	-8.231009e+00	-3.682442e+01
2.720000e-06	-1.236698e-06	-7.060518e-10	-8.569352e+00	-4.864363e+01
2.730000e-06	-1.284872e-06	-8.922631e-10	-8.903165e+00	-6.080404e+01
2.740000e-06	-1.332177e-06	-1.081066e-09	-9.230947e+00	-7.324954e+01
2.750000e-06	-1.378749e-06	-1.273200e-09	-9.553659e+00	-8.591400e+01
2.760000e-06	-1.424873e-06	-1.469356e-09	-9.873263e+00	-9.871918e+01
2.770000e-06	-1.470586e-06	-1.667658e-09	-1.019002e+01	-1.115725e+02
2.780000e-06	-1.515878e-06	-1.865434e-09	-1.050386e+01	-1.243675e+02
2.790000e-06	-1.560782e-06	-2.058150e-09	-1.081501e+01	-1.369878e+02
2.800000e-06	-1.605228e-06	-2.245202e-09	-1.112298e+01	-1.493159e+02
2.810000e-06	-1.649078e-06	-2.428752e-09	-1.142683e+01	-1.612435e+02
2.820000e-06	-1.692459e-06	-2.606768e-09	-1.172742e+01	-1.726815e+02
2.830000e-06	-1.735539e-06	-2.773332e-09	-1.202594e+01	-1.835661e+02
2.840000e-06	-1.778139e-06	-2.929200e-09	-1.232112e+01	-1.938605e+02
2.850000e-06	-1.820083e-06	-3.078844e-09	-1.261176e+01	-2.035499e+02
2.860000e-06	-1.861415e-06	-3.220169e-09	-1.289816e+01	-2.126351e+02
2.870000e-06	-1.902161e-06	-3.351669e-09	-1.318050e+01	-2.211248e+02
2.880000e-06	-1.942235e-06	-3.472993e-09	-1.345818e+01	-2.290313e+02
2.890000e-06	-1.981712e-06	-3.586429e-09	-1.373172e+01	-2.363699e+02
2.900000e-06	-2.020673e-06	-3.691986e-09	-1.400169e+01	-2.431620e+02
2.910000e-06	-2.058870e-06	-3.790205e-09	-1.426637e+01	-2.494386e+02
2.920000e-06	-2.096005e-06	-3.881541e-09	-1.452368e+01	-2.552429e+02
2.930000e-06	-2.132118e-06	-3.964441e-09	-1.477392e+01	-2.606284e+02
2.940000e-06	-2.167532e-06	-4.041343e-09	-1.501931e+01	-2.656531e+02
