# Temperatura_=_25.34
# Concentracion g/m^3_=_13400.0
# C_Vs_to_Am_M_A/Vsm_=_65563218390.804596
# pendiente_HvsI_1/m_=_3716.3
# ordenada_HvsI_A/m_=_1297.0
# frecuencia_Hz_=_300837.3322788169

Tiempo_(s)	Campo_(V.s)	Magnetizacion_(V.s)	Campo_(kA/m)	Magnetizacion_(A/m)
0.000000e+00	-2.859237e-06	-5.202447e-09	-1.979959e+01	-3.407390e+02
1.000000e-08	-2.858770e-06	-5.200858e-09	-1.979635e+01	-3.407783e+02
2.000000e-08	-2.857549e-06	-5.194149e-09	-1.978790e+01	-3.407719e+02
3.000000e-08	-2.855391e-06	-5.188424e-09	-1.977296e+01	-3.407125e+02
4.000000e-08	-2.851978e-06	-5.187161e-09	-1.974932e+01	-3.405895e+02
5.000000e-08	-2.847484e-06	-5.187083e-09	-1.971820e+01	-3.403933e+02
6.000000e-08	-2.842217e-06	-5.182504e-09	-1.968173e+01	-3.401184e+02
7.000000e-08	-2.836132e-06	-5.176364e-09	-1.963959e+01	-3.397662e+02
8.000000e-08	-2.829110e-06	-5.178648e-09	-1.959097e+01	-3.393451e+02
9.000000e-08	-2.821020e-06	-5.182888e-09	-1.953494e+01	-3.388687e+02
1.000000e-07	-2.811615e-06	-5.168083e-09	-1.946982e+01	-3.383516e+02
1.100000e-07	-2.800805e-06	-5.135535e-09	-1.939496e+01	-3.378048e+02
1.200000e-07	-2.788928e-06	-5.111393e-09	-1.931272e+01	-3.372326e+02
1.300000e-07	-2.776280e-06	-5.144893e-09	-1.922513e+01	-3.366313e+02
1.400000e-07	-2.762624e-06	-5.131495e-09	-1.913056e+01	-3.359909e+02
1.500000e-07	-2.747916e-06	-5.111644e-09	-1.902872e+01	-3.352986e+02
1.600000e-07	-2.732296e-06	-5.110119e-09	-1.892055e+01	-3.345434e+02
1.700000e-07	-2.715302e-06	-5.134008e-09	-1.880287e+01	-3.337196e+02
1.800000e-07	-2.697012e-06	-5.136379e-09	-1.867621e+01	-3.328287e+02
1.900000e-07	-2.678088e-06	-5.077067e-09	-1.854517e+01	-3.318781e+02
2.000000e-07	-2.658456e-06	-5.090190e-09	-1.840922e+01	-3.308780e+02
2.100000e-07	-2.637866e-06	-5.070026e-09	-1.826664e+01	-3.298375e+02
2.200000e-07	-2.616508e-06	-5.019779e-09	-1.811874e+01	-3.287611e+02
2.300000e-07	-2.594399e-06	-5.041964e-09	-1.796565e+01	-3.276468e+02
2.400000e-07	-2.571279e-06	-5.054171e-09	-1.780555e+01	-3.264870e+02
2.500000e-07	-2.547193e-06	-4.988977e-09	-1.763875e+01	-3.252701e+02
2.600000e-07	-2.522394e-06	-4.963863e-09	-1.746703e+01	-3.239845e+02
2.700000e-07	-2.496806e-06	-4.968529e-09	-1.728983e+01	-3.226212e+02
2.800000e-07	-2.470168e-06	-4.941457e-09	-1.710537e+01	-3.211758e+02
2.900000e-07	-2.442428e-06	-4.890414e-09	-1.691328e+01	-3.196481e+02
3.000000e-07	-2.413661e-06	-4.886263e-09	-1.671407e+01	-3.180417e+02
3.100000e-07	-2.384047e-06	-4.870098e-09	-1.650900e+01	-3.163620e+02
3.200000e-07	-2.353782e-06	-4.833614e-09	-1.629943e+01	-3.146144e+02
3.300000e-07	-2.322789e-06	-4.832093e-09	-1.608480e+01	-3.128043e+02
3.400000e-07	-2.290929e-06	-4.782896e-09	-1.586418e+01	-3.109365e+02
3.500000e-07	-2.258369e-06	-4.732239e-09	-1.563871e+01	-3.090157e+02
3.600000e-07	-2.225235e-06	-4.724073e-09	-1.540927e+01	-3.070467e+02
3.700000e-07	-2.191309e-06	-4.712305e-09	-1.517434e+01	-3.050339e+02
3.800000e-07	-2.156245e-06	-4.651486e-09	-1.493152e+01	-3.029800e+02
3.900000e-07	-2.120104e-06	-4.620076e-09	-1.468125e+01	-3.008850e+02
4.000000e-07	-2.083268e-06	-4.608327e-09	-1.442618e+01	-2.987459e+02
4.100000e-07	-2.045834e-06	-4.568334e-09	-1.416695e+01	-2.965564e+02
4.200000e-07	-2.007688e-06	-4.520523e-09	-1.390280e+01	-2.943095e+02
4.300000e-07	-1.968832e-06	-4.480961e-09	-1.363373e+01	-2.919998e+02
4.400000e-07	-1.929242e-06	-4.448322e-09	-1.335958e+01	-2.896255e+02
4.500000e-07	-1.888981e-06	-4.414727e-09	-1.308078e+01	-2.871896e+02
4.600000e-07	-1.848337e-06	-4.384464e-09	-1.279933e+01	-2.846994e+02
4.700000e-07	-1.807359e-06	-4.336870e-09	-1.251557e+01	-2.821633e+02
4.800000e-07	-1.765677e-06	-4.295048e-09	-1.222693e+01	-2.795880e+02
4.900000e-07	-1.722895e-06	-4.249521e-09	-1.193067e+01	-2.769746e+02
5.000000e-07	-1.679067e-06	-4.209593e-09	-1.162717e+01	-2.743181e+02
5.100000e-07	-1.634617e-06	-4.169731e-09	-1.131936e+01	-2.716077e+02
5.200000e-07	-1.589752e-06	-4.120865e-09	-1.100869e+01	-2.688308e+02
5.300000e-07	-1.544425e-06	-4.081888e-09	-1.069480e+01	-2.659771e+02
5.400000e-07	-1.498573e-06	-4.048860e-09	-1.037729e+01	-2.630425e+02
5.500000e-07	-1.452146e-06	-3.997529e-09	-1.005579e+01	-2.600305e+02
5.600000e-07	-1.405213e-06	-3.931361e-09	-9.730794e+00	-2.569506e+02
5.700000e-07	-1.357848e-06	-3.889015e-09	-9.402799e+00	-2.538146e+02
5.800000e-07	-1.309993e-06	-3.844265e-09	-9.071415e+00	-2.506305e+02
5.900000e-07	-1.261680e-06	-3.794793e-09	-8.736860e+00	-2.473988e+02
6.000000e-07	-1.213022e-06	-3.747546e-09	-8.399908e+00	-2.441107e+02
6.100000e-07	-1.163975e-06	-3.696983e-09	-8.060274e+00	-2.407495e+02
6.200000e-07	-1.114462e-06	-3.640955e-09	-7.717407e+00	-2.372967e+02
6.300000e-07	-1.064282e-06	-3.583466e-09	-7.369918e+00	-2.337380e+02
6.400000e-07	-1.013436e-06	-3.525027e-09	-7.017820e+00	-2.300688e+02
6.500000e-07	-9.621082e-07	-3.462092e-09	-6.662389e+00	-2.262974e+02
6.600000e-07	-9.102623e-07	-3.406022e-09	-6.303367e+00	-2.224422e+02
6.700000e-07	-8.579630e-07	-3.349114e-09	-5.941206e+00	-2.185266e+02
6.800000e-07	-8.054141e-07	-3.291306e-09	-5.577316e+00	-2.145713e+02
6.900000e-07	-7.526612e-07	-3.227232e-09	-5.212014e+00	-2.105870e+02
7.000000e-07	-6.996610e-07	-3.160649e-09	-4.844999e+00	-2.065705e+02
7.100000e-07	-6.464270e-07	-3.096171e-09	-4.476365e+00	-2.025056e+02
7.200000e-07	-5.929659e-07	-3.032942e-09	-4.106159e+00	-1.983677e+02
7.300000e-07	-5.392791e-07	-2.967567e-09	-3.734389e+00	-1.941309e+02
7.400000e-07	-4.854158e-07	-2.900255e-09	-3.361398e+00	-1.897759e+02
7.500000e-07	-4.313403e-07	-2.833168e-09	-2.986937e+00	-1.852936e+02
7.600000e-07	-3.770484e-07	-2.759577e-09	-2.610977e+00	-1.806861e+02
7.700000e-07	-3.226791e-07	-2.683703e-09	-2.234482e+00	-1.759630e+02
7.800000e-07	-2.682425e-07	-2.605822e-09	-1.857520e+00	-1.711345e+02
7.900000e-07	-2.136946e-07	-2.529760e-09	-1.479788e+00	-1.662057e+02
8.000000e-07	-1.590662e-07	-2.454915e-09	-1.101499e+00	-1.611725e+02
8.100000e-07	-1.044134e-07	-2.379675e-09	-7.230399e-01	-1.560208e+02
8.200000e-07	-4.975222e-08	-2.299730e-09	-3.445232e-01	-1.507308e+02
8.300000e-07	4.936804e-09	-2.212353e-09	3.418628e-02	-1.452821e+02
8.400000e-07	5.962063e-08	-2.121768e-09	4.128598e-01	-1.396596e+02
8.500000e-07	1.142437e-07	-2.029840e-09	7.911122e-01	-1.338572e+02
8.600000e-07	1.688281e-07	-1.939581e-09	1.169098e+00	-1.278775e+02
8.700000e-07	2.233899e-07	-1.847205e-09	1.546926e+00	-1.217281e+02
8.800000e-07	2.779202e-07	-1.754758e-09	1.924536e+00	-1.154160e+02
8.900000e-07	3.323928e-07	-1.659473e-09	2.301747e+00	-1.089416e+02
9.000000e-07	3.867679e-07	-1.556898e-09	2.678283e+00	-1.022949e+02
9.100000e-07	4.410197e-07	-1.449543e-09	3.053965e+00	-9.545488e+01
9.200000e-07	4.951131e-07	-1.339616e-09	3.428550e+00	-8.839267e+01
9.300000e-07	5.489748e-07	-1.225381e-09	3.801530e+00	-8.107650e+01
9.400000e-07	6.025641e-07	-1.105869e-09	4.172624e+00	-7.347718e+01
9.500000e-07	6.558744e-07	-9.859335e-10	4.541786e+00	-6.557182e+01
9.600000e-07	7.088928e-07	-8.644855e-10	4.908928e+00	-5.734482e+01
9.700000e-07	7.616889e-07	-7.373654e-10	5.274529e+00	-4.878571e+01
9.800000e-07	8.142980e-07	-5.987621e-10	5.638835e+00	-3.988510e+01
9.900000e-07	8.666278e-07	-4.523243e-10	6.001207e+00	-3.063014e+01
1.000000e-06	9.185602e-07	-3.028941e-10	6.360828e+00	-2.100148e+01
1.010000e-06	9.700338e-07	-1.488632e-10	6.717271e+00	-1.097281e+01
1.020000e-06	1.020948e-06	1.385435e-11	7.069844e+00	-5.136122e-01
1.030000e-06	1.071178e-06	1.844484e-10	7.417670e+00	1.040562e+01
1.040000e-06	1.120707e-06	3.581923e-10	7.760651e+00	2.180657e+01
1.050000e-06	1.169742e-06	5.367539e-10	8.100208e+00	3.369636e+01
1.060000e-06	1.218513e-06	7.234468e-10	8.437938e+00	4.606186e+01
1.070000e-06	1.267080e-06	9.205852e-10	8.774253e+00	5.886620e+01
1.080000e-06	1.315304e-06	1.121362e-09	9.108194e+00	7.204757e+01
1.090000e-06	1.363060e-06	1.323026e-09	9.438894e+00	8.552042e+01
1.100000e-06	1.410275e-06	1.527731e-09	9.765844e+00	9.917885e+01
1.110000e-06	1.456954e-06	1.737814e-09	1.008909e+01	1.129016e+02
1.120000e-06	1.503159e-06	1.949089e-09	1.040905e+01	1.265589e+02
1.130000e-06	1.548780e-06	2.150248e-09	1.072496e+01	1.400191e+02
1.140000e-06	1.593886e-06	2.344122e-09	1.103731e+01	1.531570e+02
1.150000e-06	1.638668e-06	2.536403e-09	1.134742e+01	1.658607e+02
1.160000e-06	1.683130e-06	2.723779e-09	1.165530e+01	1.780368e+02
1.170000e-06	1.727082e-06	2.899348e-09	1.195966e+01	1.896143e+02
1.180000e-06	1.770141e-06	3.063199e-09	1.225784e+01	2.005454e+02
1.190000e-06	1.812138e-06	3.219674e-09	1.254866e+01	2.108043e+02
1.200000e-06	1.853322e-06	3.368248e-09	1.283385e+01	2.203843e+02
1.210000e-06	1.893974e-06	3.504666e-09	1.311535e+01	2.292941e+02
1.220000e-06	1.934134e-06	3.627459e-09	1.339346e+01	2.375546e+02
1.230000e-06	1.973662e-06	3.739199e-09	1.366718e+01	2.451958e+02
1.240000e-06	2.012485e-06	3.843963e-09	1.393602e+01	2.522553e+02
1.250000e-06	2.050564e-06	3.942899e-09	1.419971e+01	2.587768e+02
1.260000e-06	2.087945e-06	4.034050e-09	1.445856e+01	2.648088e+02
1.270000e-06	2.124822e-06	4.119824e-09	1.471393e+01	2.704020e+02
1.280000e-06	2.161189e-06	4.201758e-09	1.496576e+01	2.756064e+02
1.290000e-06	2.196713e-06	4.278448e-09	1.521176e+01	2.804674e+02
1.300000e-06	2.231111e-06	4.346076e-09	1.544995e+01	2.850227e+02
1.310000e-06	2.264491e-06	4.406397e-09	1.568110e+01	2.892999e+02
1.320000e-06	2.297159e-06	4.465239e-09	1.590732e+01	2.933166e+02
1.330000e-06	2.329139e-06	4.522712e-09	1.612878e+01	2.970823e+02
1.340000e-06	2.360333e-06	4.575983e-09	1.634479e+01	3.006021e+02
1.350000e-06	2.390730e-06	4.624305e-09	1.655528e+01	3.038806e+02
1.360000e-06	2.420274e-06	4.669244e-09	1.675987e+01	3.069258e+02
1.370000e-06	2.449139e-06	4.710284e-09	1.695975e+01	3.097505e+02
1.380000e-06	2.477383e-06	4.746805e-09	1.715533e+01	3.123725e+02
1.390000e-06	2.504576e-06	4.779981e-09	1.734364e+01	3.148121e+02
1.400000e-06	2.530504e-06	4.812544e-09	1.752318e+01	3.170891e+02
1.410000e-06	2.555447e-06	4.844506e-09	1.769591e+01	3.192207e+02
1.420000e-06	2.579528e-06	4.875176e-09	1.786266e+01	3.212191e+02
1.430000e-06	2.602704e-06	4.903941e-09	1.802315e+01	3.230920e+02
1.440000e-06	2.625017e-06	4.930035e-09	1.817766e+01	3.248435e+02
1.450000e-06	2.646459e-06	4.953254e-09	1.832615e+01	3.264764e+02
1.460000e-06	2.667222e-06	4.972998e-09	1.846993e+01	3.279942e+02
1.470000e-06	2.687284e-06	4.991865e-09	1.860885e+01	3.294019e+02
1.480000e-06	2.706385e-06	5.011562e-09	1.874112e+01	3.307064e+02
1.490000e-06	2.724480e-06	5.031970e-09	1.886642e+01	3.319155e+02
1.500000e-06	2.741631e-06	5.050420e-09	1.898519e+01	3.330375e+02
1.510000e-06	2.757721e-06	5.065944e-09	1.909661e+01	3.340793e+02
1.520000e-06	2.772624e-06	5.081526e-09	1.919981e+01	3.350470e+02
1.530000e-06	2.786498e-06	5.097165e-09	1.929589e+01	3.359452e+02
1.540000e-06	2.799403e-06	5.108424e-09	1.938525e+01	3.367776e+02
1.550000e-06	2.811136e-06	5.115486e-09	1.946650e+01	3.375474e+02
1.560000e-06	2.821483e-06	5.122684e-09	1.953815e+01	3.382567e+02
1.570000e-06	2.830664e-06	5.132824e-09	1.960172e+01	3.389064e+02
1.580000e-06	2.839000e-06	5.146299e-09	1.965945e+01	3.394957e+02
1.590000e-06	2.846429e-06	5.159134e-09	1.971090e+01	3.400223e+02
1.600000e-06	2.852885e-06	5.168150e-09	1.975561e+01	3.404829e+02
1.610000e-06	2.858427e-06	5.173791e-09	1.979398e+01	3.408746e+02
1.620000e-06	2.863088e-06	5.178617e-09	1.982626e+01	3.411967e+02
1.630000e-06	2.866730e-06	5.182741e-09	1.985148e+01	3.414516e+02
1.640000e-06	2.869108e-06	5.185285e-09	1.986795e+01	3.416450e+02
1.650000e-06	2.870315e-06	5.185996e-09	1.987630e+01	3.417843e+02
1.660000e-06	2.870632e-06	5.186720e-09	1.987850e+01	3.418764e+02
1.670000e-06	2.870051e-06	5.189885e-09	1.987447e+01	3.419252e+02
1.680000e-06	2.868514e-06	5.193274e-09	1.986383e+01	3.419293e+02
1.690000e-06	2.866136e-06	5.194337e-09	1.984736e+01	3.418823e+02
1.700000e-06	2.863022e-06	5.193019e-09	1.982580e+01	3.417740e+02
1.710000e-06	2.859046e-06	5.190216e-09	1.979827e+01	3.415944e+02
1.720000e-06	2.853909e-06	5.187032e-09	1.976270e+01	3.413368e+02
1.730000e-06	2.847622e-06	5.180245e-09	1.971916e+01	3.410009e+02
1.740000e-06	2.840460e-06	5.167278e-09	1.966956e+01	3.405938e+02
1.750000e-06	2.832364e-06	5.153603e-09	1.961350e+01	3.401283e+02
1.760000e-06	2.822788e-06	5.165901e-09	1.954719e+01	3.396190e+02
1.770000e-06	2.811638e-06	5.165093e-09	1.946998e+01	3.390781e+02
1.780000e-06	2.799854e-06	5.165637e-09	1.938838e+01	3.385117e+02
1.790000e-06	2.787977e-06	5.128101e-09	1.930613e+01	3.379175e+02
1.800000e-06	2.775010e-06	5.102356e-09	1.921634e+01	3.372868e+02
1.810000e-06	2.760289e-06	5.116722e-09	1.911439e+01	3.366069e+02
1.820000e-06	2.744643e-06	5.101190e-09	1.900605e+01	3.358661e+02
1.830000e-06	2.728498e-06	5.091873e-09	1.889425e+01	3.350574e+02
1.840000e-06	2.711145e-06	5.084281e-09	1.877409e+01	3.341807e+02
1.850000e-06	2.692575e-06	5.094558e-09	1.864549e+01	3.332423e+02
1.860000e-06	2.673416e-06	5.068029e-09	1.851282e+01	3.322521e+02
1.870000e-06	2.653337e-06	5.028825e-09	1.837378e+01	3.312199e+02
1.880000e-06	2.631872e-06	5.048383e-09	1.822514e+01	3.301514e+02
1.890000e-06	2.609402e-06	5.007257e-09	1.806953e+01	3.290460e+02
1.900000e-06	2.586066e-06	4.953986e-09	1.790794e+01	3.278970e+02
1.910000e-06	2.561736e-06	5.006844e-09	1.773946e+01	3.266936e+02
1.920000e-06	2.536715e-06	4.986519e-09	1.756620e+01	3.254239e+02
1.930000e-06	2.510913e-06	4.920973e-09	1.738752e+01	3.240781e+02
1.940000e-06	2.484208e-06	4.924375e-09	1.720259e+01	3.226506e+02
1.950000e-06	2.456886e-06	4.919224e-09	1.701340e+01	3.211406e+02
1.960000e-06	2.428603e-06	4.861884e-09	1.681754e+01	3.195509e+02
1.970000e-06	2.398978e-06	4.842721e-09	1.661240e+01	3.178866e+02
1.980000e-06	2.368412e-06	4.836999e-09	1.640073e+01	3.161534e+02
1.990000e-06	2.337159e-06	4.786860e-09	1.618431e+01	3.143565e+02
2.000000e-06	2.305160e-06	4.779765e-09	1.596273e+01	3.125009e+02
2.010000e-06	2.272388e-06	4.760991e-09	1.573579e+01	3.105913e+02
2.020000e-06	2.238789e-06	4.698267e-09	1.550312e+01	3.086325e+02
2.030000e-06	2.204463e-06	4.672587e-09	1.526542e+01	3.066290e+02
2.040000e-06	2.169547e-06	4.660767e-09	1.502364e+01	3.045840e+02
2.050000e-06	2.133964e-06	4.610327e-09	1.477723e+01	3.024983e+02
2.060000e-06	2.097546e-06	4.568619e-09	1.452504e+01	3.003692e+02
2.070000e-06	2.060060e-06	4.550112e-09	1.426547e+01	2.981913e+02
2.080000e-06	2.021571e-06	4.522980e-09	1.399894e+01	2.959576e+02
2.090000e-06	1.982461e-06	4.485546e-09	1.372811e+01	2.936619e+02
2.100000e-06	1.942823e-06	4.445158e-09	1.345362e+01	2.913015e+02
2.110000e-06	1.902505e-06	4.410109e-09	1.317443e+01	2.888786e+02
2.120000e-06	1.861520e-06	4.368964e-09	1.289062e+01	2.863995e+02
2.130000e-06	1.819916e-06	4.328416e-09	1.260252e+01	2.838729e+02
2.140000e-06	1.777748e-06	4.293133e-09	1.231051e+01	2.813059e+02
2.150000e-06	1.735079e-06	4.256351e-09	1.201504e+01	2.787011e+02
2.160000e-06	1.691979e-06	4.212701e-09	1.171658e+01	2.760548e+02
2.170000e-06	1.648464e-06	4.169962e-09	1.141525e+01	2.733572e+02
2.180000e-06	1.604269e-06	4.136459e-09	1.110921e+01	2.705959e+02
2.190000e-06	1.559375e-06	4.086507e-09	1.079833e+01	2.677595e+02
2.200000e-06	1.514001e-06	4.038660e-09	1.048412e+01	2.648424e+02
2.210000e-06	1.468204e-06	4.006811e-09	1.016699e+01	2.618466e+02
2.220000e-06	1.421952e-06	3.963378e-09	9.846709e+00	2.587805e+02
2.230000e-06	1.375163e-06	3.904509e-09	9.522703e+00	2.556559e+02
2.240000e-06	1.327790e-06	3.857023e-09	9.194652e+00	2.524819e+02
2.250000e-06	1.279811e-06	3.809084e-09	8.862412e+00	2.492612e+02
2.260000e-06	1.231288e-06	3.756330e-09	8.526400e+00	2.459865e+02
2.270000e-06	1.182319e-06	3.711182e-09	8.187300e+00	2.426429e+02
2.280000e-06	1.132934e-06	3.661532e-09	7.845322e+00	2.392114e+02
2.290000e-06	1.083087e-06	3.611131e-09	7.500143e+00	2.356764e+02
2.300000e-06	1.032772e-06	3.555741e-09	7.151720e+00	2.320309e+02
2.310000e-06	9.820558e-07	3.495801e-09	6.800521e+00	2.282803e+02
2.320000e-06	9.310513e-07	3.432635e-09	6.447326e+00	2.244414e+02
2.330000e-06	8.798157e-07	3.369794e-09	6.092531e+00	2.205371e+02
2.340000e-06	8.282694e-07	3.313224e-09	5.735584e+00	2.165892e+02
2.350000e-06	7.762996e-07	3.260991e-09	5.375704e+00	2.126111e+02
2.360000e-06	7.238222e-07	3.204561e-09	5.012310e+00	2.086027e+02
2.370000e-06	6.708876e-07	3.140429e-09	4.645750e+00	2.045503e+02
2.380000e-06	6.175281e-07	3.077993e-09	4.276247e+00	2.004305e+02
2.390000e-06	5.637708e-07	3.016201e-09	3.903989e+00	1.962171e+02
2.400000e-06	5.096772e-07	2.948834e-09	3.529403e+00	1.918888e+02
2.410000e-06	4.553598e-07	2.878480e-09	3.153267e+00	1.874342e+02
2.420000e-06	4.009070e-07	2.814071e-09	2.776193e+00	1.828532e+02
2.430000e-06	3.462688e-07	2.750422e-09	2.397835e+00	1.781541e+02
2.440000e-06	2.914971e-07	2.679411e-09	2.018554e+00	1.733477e+02
2.450000e-06	2.366933e-07	2.602295e-09	1.639049e+00	1.684407e+02
2.460000e-06	1.818442e-07	2.525667e-09	1.259231e+00	1.634310e+02
2.470000e-06	1.269378e-07	2.449411e-09	8.790168e-01	1.583065e+02
2.480000e-06	7.200718e-08	2.367836e-09	4.986339e-01	1.530482e+02
2.490000e-06	1.705278e-08	2.284493e-09	1.180868e-01	1.476352e+02
2.500000e-06	-3.791297e-08	2.200965e-09	-2.625390e-01	1.420510e+02
2.510000e-06	-9.287548e-08	2.116905e-09	-6.431424e-01	1.362875e+02
2.520000e-06	-1.478224e-07	2.029390e-09	-1.023638e+00	1.303454e+02
2.530000e-06	-2.027122e-07	1.935167e-09	-1.403737e+00	1.242319e+02
2.540000e-06	-2.575456e-07	1.836544e-09	-1.783447e+00	1.179546e+02
2.550000e-06	-3.122975e-07	1.738467e-09	-2.162592e+00	1.115157e+02
2.560000e-06	-3.669773e-07	1.642428e-09	-2.541237e+00	1.049076e+02
2.570000e-06	-4.215542e-07	1.540915e-09	-2.919171e+00	9.811144e+01
2.580000e-06	-4.759594e-07	1.431832e-09	-3.295914e+00	9.109975e+01
2.590000e-06	-5.302001e-07	1.319672e-09	-3.671519e+00	8.384086e+01
2.600000e-06	-5.841927e-07	1.207780e-09	-4.045406e+00	7.630463e+01
2.610000e-06	-6.378048e-07	1.090916e-09	-4.416659e+00	6.846664e+01
2.620000e-06	-6.909792e-07	9.657423e-10	-4.784879e+00	6.030981e+01
2.630000e-06	-7.436715e-07	8.364603e-10	-5.149762e+00	5.182286e+01
2.640000e-06	-7.958394e-07	7.050913e-10	-5.511013e+00	4.299657e+01
2.650000e-06	-8.475640e-07	5.682270e-10	-5.869195e+00	3.381916e+01
2.660000e-06	-8.989745e-07	4.217708e-10	-6.225201e+00	2.427282e+01
2.670000e-06	-9.501097e-07	2.688141e-10	-6.579302e+00	1.433260e+01
2.680000e-06	-1.000985e-06	1.118446e-10	-6.931600e+00	3.968510e+00
2.690000e-06	-1.051506e-06	-5.020881e-11	-7.281449e+00	-6.849701e+00
2.700000e-06	-1.101552e-06	-2.208505e-10	-7.628003e+00	-1.814600e+01
2.710000e-06	-1.151108e-06	-3.994870e-10	-7.971171e+00	-2.993114e+01
2.720000e-06	-1.200203e-06	-5.856855e-10	-8.311145e+00	-4.219672e+01
2.730000e-06	-1.248894e-06	-7.797215e-10	-8.648320e+00	-5.491114e+01
2.740000e-06	-1.296989e-06	-9.816990e-10	-8.981365e+00	-6.801791e+01
2.750000e-06	-1.344251e-06	-1.190124e-09	-9.308645e+00	-8.143635e+01
2.760000e-06	-1.390699e-06	-1.401084e-09	-9.630285e+00	-9.506454e+01
2.770000e-06	-1.436572e-06	-1.612336e-09	-9.947948e+00	-1.087841e+02
2.780000e-06	-1.482108e-06	-1.823589e-09	-1.026327e+01	-1.224662e+02
2.790000e-06	-1.527320e-06	-2.034644e-09	-1.057635e+01	-1.359793e+02
2.800000e-06	-1.572174e-06	-2.238419e-09	-1.088696e+01	-1.491960e+02
2.810000e-06	-1.616511e-06	-2.430976e-09	-1.119398e+01	-1.620011e+02
2.820000e-06	-1.660210e-06	-2.617681e-09	-1.149659e+01	-1.742968e+02
2.830000e-06	-1.703441e-06	-2.800398e-09	-1.179595e+01	-1.860071e+02
2.840000e-06	-1.746324e-06	-2.973477e-09	-1.209291e+01	-1.970794e+02
2.850000e-06	-1.788750e-06	-3.133010e-09	-1.238670e+01	-2.074832e+02
2.860000e-06	-1.830589e-06	-3.282889e-09	-1.267642e+01	-2.172082e+02
2.870000e-06	-1.871804e-06	-3.424724e-09	-1.296183e+01	-2.262600e+02
2.880000e-06	-1.912363e-06	-3.555321e-09	-1.324270e+01	-2.346571e+02
2.890000e-06	-1.952207e-06	-3.673018e-09	-1.351861e+01	-2.424279e+02
2.900000e-06	-1.991447e-06	-3.782529e-09	-1.379033e+01	-2.496082e+02
2.910000e-06	-2.030233e-06	-3.885130e-09	-1.405892e+01	-2.562409e+02
2.920000e-06	-2.068294e-06	-3.980290e-09	-1.432249e+01	-2.623733e+02
2.930000e-06	-2.105255e-06	-4.069108e-09	-1.457843e+01	-2.680560e+02
2.940000e-06	-2.141163e-06	-4.151983e-09	-1.482709e+01	-2.733395e+02
