# Temperatura_=_21.48
# Concentracion g/m^3_=_13400.0
# C_Vs_to_Am_M_A/Vsm_=_65563218390.804596
# pendiente_HvsI_1/m_=_3716.3
# ordenada_HvsI_A/m_=_1297.0
# frecuencia_Hz_=_300837.20736717456

Tiempo_(s)	Campo_(V.s)	Magnetizacion_(V.s)	Campo_(kA/m)	Magnetizacion_(A/m)
0.000000e+00	-2.860692e-06	-5.081894e-09	-1.980409e+01	-3.312571e+02
1.000000e-08	-2.860330e-06	-5.080091e-09	-1.980158e+01	-3.312768e+02
2.000000e-08	-2.859244e-06	-5.076091e-09	-1.979406e+01	-3.312827e+02
3.000000e-08	-2.857125e-06	-5.073941e-09	-1.977939e+01	-3.312754e+02
4.000000e-08	-2.853706e-06	-5.074542e-09	-1.975573e+01	-3.312366e+02
5.000000e-08	-2.849291e-06	-5.075121e-09	-1.972516e+01	-3.311355e+02
6.000000e-08	-2.844116e-06	-5.073790e-09	-1.968934e+01	-3.309399e+02
7.000000e-08	-2.838069e-06	-5.071257e-09	-1.964747e+01	-3.306289e+02
8.000000e-08	-2.831020e-06	-5.072004e-09	-1.959867e+01	-3.302022e+02
9.000000e-08	-2.822930e-06	-5.065077e-09	-1.954267e+01	-3.296814e+02
1.000000e-07	-2.813550e-06	-5.053094e-09	-1.947773e+01	-3.291047e+02
1.100000e-07	-2.802698e-06	-5.030592e-09	-1.940260e+01	-3.285143e+02
1.200000e-07	-2.790773e-06	-5.028390e-09	-1.932005e+01	-3.279437e+02
1.300000e-07	-2.778123e-06	-5.021255e-09	-1.923247e+01	-3.274067e+02
1.400000e-07	-2.764518e-06	-4.999440e-09	-1.913829e+01	-3.268943e+02
1.500000e-07	-2.749884e-06	-5.017384e-09	-1.903698e+01	-3.263780e+02
1.600000e-07	-2.734307e-06	-4.993241e-09	-1.892915e+01	-3.258200e+02
1.700000e-07	-2.717337e-06	-4.969290e-09	-1.881167e+01	-3.251845e+02
1.800000e-07	-2.699132e-06	-4.954575e-09	-1.868563e+01	-3.244474e+02
1.900000e-07	-2.680326e-06	-4.932078e-09	-1.855544e+01	-3.236012e+02
2.000000e-07	-2.660768e-06	-4.912395e-09	-1.842005e+01	-3.226532e+02
2.100000e-07	-2.640210e-06	-4.891779e-09	-1.827772e+01	-3.216197e+02
2.200000e-07	-2.618873e-06	-4.884113e-09	-1.813001e+01	-3.205186e+02
2.300000e-07	-2.596797e-06	-4.862100e-09	-1.797718e+01	-3.193628e+02
2.400000e-07	-2.573689e-06	-4.870374e-09	-1.781722e+01	-3.181576e+02
2.500000e-07	-2.549659e-06	-4.862681e-09	-1.765086e+01	-3.169013e+02
2.600000e-07	-2.524918e-06	-4.797715e-09	-1.747958e+01	-3.155888e+02
2.700000e-07	-2.499280e-06	-4.790143e-09	-1.730209e+01	-3.142158e+02
2.800000e-07	-2.472488e-06	-4.794754e-09	-1.711662e+01	-3.127813e+02
2.900000e-07	-2.444601e-06	-4.720288e-09	-1.692356e+01	-3.112872e+02
3.000000e-07	-2.415814e-06	-4.716770e-09	-1.672427e+01	-3.097371e+02
3.100000e-07	-2.386252e-06	-4.727953e-09	-1.651962e+01	-3.081333e+02
3.200000e-07	-2.356004e-06	-4.672727e-09	-1.631022e+01	-3.064751e+02
3.300000e-07	-2.325000e-06	-4.648969e-09	-1.609558e+01	-3.047590e+02
3.400000e-07	-2.293148e-06	-4.647714e-09	-1.587508e+01	-3.029807e+02
3.500000e-07	-2.260654e-06	-4.582393e-09	-1.565012e+01	-3.011379e+02
3.600000e-07	-2.227576e-06	-4.545991e-09	-1.542113e+01	-2.992327e+02
3.700000e-07	-2.193638e-06	-4.563534e-09	-1.518619e+01	-2.972712e+02
3.800000e-07	-2.158529e-06	-4.510515e-09	-1.494313e+01	-2.952616e+02
3.900000e-07	-2.122396e-06	-4.467486e-09	-1.469299e+01	-2.932107e+02
4.000000e-07	-2.085653e-06	-4.466506e-09	-1.443863e+01	-2.911206e+02
4.100000e-07	-2.048287e-06	-4.430114e-09	-1.417995e+01	-2.889873e+02
4.200000e-07	-2.010204e-06	-4.370913e-09	-1.391630e+01	-2.868020e+02
4.300000e-07	-1.971426e-06	-4.349303e-09	-1.364785e+01	-2.845546e+02
4.400000e-07	-1.931902e-06	-4.317917e-09	-1.337423e+01	-2.822381e+02
4.500000e-07	-1.891700e-06	-4.277465e-09	-1.309592e+01	-2.798521e+02
4.600000e-07	-1.851102e-06	-4.244906e-09	-1.281486e+01	-2.774035e+02
4.700000e-07	-1.810093e-06	-4.206409e-09	-1.253097e+01	-2.749036e+02
4.800000e-07	-1.768282e-06	-4.171091e-09	-1.224152e+01	-2.723636e+02
4.900000e-07	-1.725363e-06	-4.124290e-09	-1.194440e+01	-2.697896e+02
5.000000e-07	-1.681505e-06	-4.076302e-09	-1.164077e+01	-2.671797e+02
5.100000e-07	-1.637116e-06	-4.040768e-09	-1.133348e+01	-2.645239e+02
5.200000e-07	-1.592360e-06	-4.009451e-09	-1.102364e+01	-2.618087e+02
5.300000e-07	-1.547152e-06	-3.958163e-09	-1.071067e+01	-2.590218e+02
5.400000e-07	-1.501351e-06	-3.917729e-09	-1.039360e+01	-2.561579e+02
5.500000e-07	-1.454959e-06	-3.874529e-09	-1.007243e+01	-2.532200e+02
5.600000e-07	-1.408023e-06	-3.818306e-09	-9.747503e+00	-2.502188e+02
5.700000e-07	-1.360575e-06	-3.773825e-09	-9.419027e+00	-2.471666e+02
5.800000e-07	-1.312666e-06	-3.728708e-09	-9.087368e+00	-2.440714e+02
5.900000e-07	-1.264371e-06	-3.678902e-09	-8.753027e+00	-2.409319e+02
6.000000e-07	-1.215758e-06	-3.634310e-09	-8.416489e+00	-2.377364e+02
6.100000e-07	-1.166783e-06	-3.591575e-09	-8.077438e+00	-2.344661e+02
6.200000e-07	-1.117254e-06	-3.530662e-09	-7.734563e+00	-2.311018e+02
6.300000e-07	-1.067037e-06	-3.470077e-09	-7.386917e+00	-2.276312e+02
6.400000e-07	-1.016161e-06	-3.415558e-09	-7.034708e+00	-2.240546e+02
6.500000e-07	-9.647102e-07	-3.362376e-09	-6.678526e+00	-2.203850e+02
6.600000e-07	-9.128096e-07	-3.305350e-09	-6.319227e+00	-2.166439e+02
6.700000e-07	-8.605580e-07	-3.243778e-09	-5.957498e+00	-2.128534e+02
6.800000e-07	-8.080049e-07	-3.186273e-09	-5.593681e+00	-2.090277e+02
6.900000e-07	-7.552435e-07	-3.129008e-09	-5.228423e+00	-2.051678e+02
7.000000e-07	-7.022826e-07	-3.068857e-09	-4.861784e+00	-2.012606e+02
7.100000e-07	-6.490292e-07	-3.001945e-09	-4.493119e+00	-1.972837e+02
7.200000e-07	-5.955055e-07	-2.938992e-09	-4.122584e+00	-1.932132e+02
7.300000e-07	-5.418114e-07	-2.876661e-09	-3.750869e+00	-1.890317e+02
7.400000e-07	-4.879617e-07	-2.810099e-09	-3.378076e+00	-1.847330e+02
7.500000e-07	-4.338777e-07	-2.738008e-09	-3.003662e+00	-1.803227e+02
7.600000e-07	-3.796061e-07	-2.665880e-09	-2.627949e+00	-1.758126e+02
7.700000e-07	-3.252316e-07	-2.597164e-09	-2.251523e+00	-1.712136e+02
7.800000e-07	-2.707758e-07	-2.525279e-09	-1.874535e+00	-1.665286e+02
7.900000e-07	-2.162707e-07	-2.451184e-09	-1.497206e+00	-1.617491e+02
8.000000e-07	-1.617258e-07	-2.374810e-09	-1.119601e+00	-1.568565e+02
8.100000e-07	-1.071363e-07	-2.299362e-09	-7.416864e-01	-1.518280e+02
8.200000e-07	-5.251898e-08	-2.220313e-09	-3.635800e-01	-1.466439e+02
8.300000e-07	2.139706e-09	-2.137078e-09	1.481282e-02	-1.412939e+02
8.400000e-07	5.683203e-08	-2.049534e-09	3.934385e-01	-1.357788e+02
8.500000e-07	1.114673e-07	-1.960432e-09	7.716693e-01	-1.301082e+02
8.600000e-07	1.660587e-07	-1.873392e-09	1.149596e+00	-1.242935e+02
8.700000e-07	2.206256e-07	-1.785255e-09	1.527354e+00	-1.183403e+02
8.800000e-07	2.751284e-07	-1.694533e-09	1.904667e+00	-1.122435e+02
8.900000e-07	3.295757e-07	-1.599583e-09	2.281597e+00	-1.059856e+02
9.000000e-07	3.839160e-07	-1.500679e-09	2.657785e+00	-9.954046e+01
9.100000e-07	4.381043e-07	-1.395466e-09	3.032922e+00	-9.288022e+01
9.200000e-07	4.921712e-07	-1.287230e-09	3.407218e+00	-8.598184e+01
9.300000e-07	5.460464e-07	-1.177008e-09	3.780187e+00	-7.883123e+01
9.400000e-07	5.996525e-07	-1.064140e-09	4.151293e+00	-7.142276e+01
9.500000e-07	6.529983e-07	-9.453960e-10	4.520597e+00	-6.375471e+01
9.600000e-07	7.061083e-07	-8.209551e-10	4.888268e+00	-5.582253e+01
9.700000e-07	7.589608e-07	-6.963474e-10	5.254157e+00	-4.761308e+01
9.800000e-07	8.115603e-07	-5.697539e-10	5.618295e+00	-3.910233e+01
9.900000e-07	8.638852e-07	-4.359972e-10	5.980531e+00	-3.025777e+01
1.000000e-06	9.159102e-07	-2.915909e-10	6.340691e+00	-2.104444e+01
1.010000e-06	9.675219e-07	-1.390482e-10	6.697991e+00	-1.143230e+01
1.020000e-06	1.018580e-06	1.930747e-11	7.051454e+00	-1.401913e+00
1.030000e-06	1.069039e-06	1.807261e-10	7.400777e+00	9.053418e+00
1.040000e-06	1.118833e-06	3.476347e-10	7.745490e+00	1.992942e+01
1.050000e-06	1.168050e-06	5.208388e-10	8.086210e+00	3.121475e+01
1.060000e-06	1.216843e-06	6.984853e-10	8.423997e+00	4.289411e+01
1.070000e-06	1.265338e-06	8.801602e-10	8.759719e+00	5.494818e+01
1.080000e-06	1.313576e-06	1.068189e-09	9.093667e+00	6.734894e+01
1.090000e-06	1.361408e-06	1.265715e-09	9.424795e+00	8.005176e+01
1.100000e-06	1.408697e-06	1.464495e-09	9.752173e+00	9.298730e+01
1.110000e-06	1.455440e-06	1.661298e-09	1.007577e+01	1.060572e+02
1.120000e-06	1.501664e-06	1.857689e-09	1.039577e+01	1.191364e+02
1.130000e-06	1.547352e-06	2.053699e-09	1.071206e+01	1.320836e+02
1.140000e-06	1.592489e-06	2.245876e-09	1.102453e+01	1.447570e+02
1.150000e-06	1.637253e-06	2.432188e-09	1.133443e+01	1.570313e+02
1.160000e-06	1.681711e-06	2.611630e-09	1.164220e+01	1.688111e+02
1.170000e-06	1.725678e-06	2.783694e-09	1.194658e+01	1.800368e+02
1.180000e-06	1.768839e-06	2.946628e-09	1.224537e+01	1.906808e+02
1.190000e-06	1.810949e-06	3.096480e-09	1.253689e+01	2.007375e+02
1.200000e-06	1.852170e-06	3.237256e-09	1.282226e+01	2.102097e+02
1.210000e-06	1.892836e-06	3.373218e-09	1.310378e+01	2.190988e+02
1.220000e-06	1.932994e-06	3.503486e-09	1.338179e+01	2.274006e+02
1.230000e-06	1.972488e-06	3.621327e-09	1.365520e+01	2.351090e+02
1.240000e-06	2.011335e-06	3.725357e-09	1.392413e+01	2.422252e+02
1.250000e-06	2.049548e-06	3.821303e-09	1.418868e+01	2.487681e+02
1.260000e-06	2.087018e-06	3.911552e-09	1.444807e+01	2.547798e+02
1.270000e-06	2.123844e-06	3.995639e-09	1.470301e+01	2.603245e+02
1.280000e-06	2.160156e-06	4.074378e-09	1.495440e+01	2.654781e+02
1.290000e-06	2.195765e-06	4.147830e-09	1.520091e+01	2.703139e+02
1.300000e-06	2.230287e-06	4.215918e-09	1.543990e+01	2.748880e+02
1.310000e-06	2.263693e-06	4.280956e-09	1.567116e+01	2.792291e+02
1.320000e-06	2.296310e-06	4.344793e-09	1.589696e+01	2.833387e+02
1.330000e-06	2.328264e-06	4.402913e-09	1.611818e+01	2.871992e+02
1.340000e-06	2.359484e-06	4.450899e-09	1.633431e+01	2.907881e+02
1.350000e-06	2.389905e-06	4.496083e-09	1.654491e+01	2.940926e+02
1.360000e-06	2.419506e-06	4.542106e-09	1.674983e+01	2.971196e+02
1.370000e-06	2.448402e-06	4.582714e-09	1.694987e+01	2.998969e+02
1.380000e-06	2.476697e-06	4.616725e-09	1.714576e+01	3.024663e+02
1.390000e-06	2.504040e-06	4.651377e-09	1.733505e+01	3.048714e+02
1.400000e-06	2.530131e-06	4.689968e-09	1.751567e+01	3.071454e+02
1.410000e-06	2.555148e-06	4.725153e-09	1.768886e+01	3.093035e+02
1.420000e-06	2.579285e-06	4.753643e-09	1.785595e+01	3.113426e+02
1.430000e-06	2.602533e-06	4.778795e-09	1.801689e+01	3.132488e+02
1.440000e-06	2.624857e-06	4.804381e-09	1.817144e+01	3.150081e+02
1.450000e-06	2.646341e-06	4.828085e-09	1.832017e+01	3.166171e+02
1.460000e-06	2.667061e-06	4.845495e-09	1.846361e+01	3.180878e+02
1.470000e-06	2.687070e-06	4.861438e-09	1.860213e+01	3.194458e+02
1.480000e-06	2.706200e-06	4.882033e-09	1.873456e+01	3.207223e+02
1.490000e-06	2.724281e-06	4.906258e-09	1.885973e+01	3.219433e+02
1.500000e-06	2.741426e-06	4.925796e-09	1.897843e+01	3.231211e+02
1.510000e-06	2.757563e-06	4.939735e-09	1.909014e+01	3.242509e+02
1.520000e-06	2.772523e-06	4.954719e-09	1.919371e+01	3.253151e+02
1.530000e-06	2.786447e-06	4.970450e-09	1.929010e+01	3.262919e+02
1.540000e-06	2.799381e-06	4.981843e-09	1.937964e+01	3.271657e+02
1.550000e-06	2.811203e-06	4.987835e-09	1.946148e+01	3.279349e+02
1.560000e-06	2.821722e-06	4.994687e-09	1.953430e+01	3.286128e+02
1.570000e-06	2.831021e-06	5.007620e-09	1.959868e+01	3.292227e+02
1.580000e-06	2.839418e-06	5.023071e-09	1.965681e+01	3.297880e+02
1.590000e-06	2.846870e-06	5.033965e-09	1.970840e+01	3.303234e+02
1.600000e-06	2.853316e-06	5.040363e-09	1.975303e+01	3.308281e+02
1.610000e-06	2.858831e-06	5.046236e-09	1.979121e+01	3.312872e+02
1.620000e-06	2.863568e-06	5.051617e-09	1.982400e+01	3.316787e+02
1.630000e-06	2.867356e-06	5.054076e-09	1.985022e+01	3.319831e+02
1.640000e-06	2.869829e-06	5.055139e-09	1.986734e+01	3.321930e+02
1.650000e-06	2.871095e-06	5.058546e-09	1.987611e+01	3.323174e+02
1.660000e-06	2.871441e-06	5.062853e-09	1.987850e+01	3.323784e+02
1.670000e-06	2.870958e-06	5.063812e-09	1.987516e+01	3.324029e+02
1.680000e-06	2.869586e-06	5.062505e-09	1.986566e+01	3.324112e+02
1.690000e-06	2.867287e-06	5.061908e-09	1.984975e+01	3.324078e+02
1.700000e-06	2.864172e-06	5.063220e-09	1.982818e+01	3.323782e+02
1.710000e-06	2.860215e-06	5.062732e-09	1.980078e+01	3.322934e+02
1.720000e-06	2.855186e-06	5.058097e-09	1.976597e+01	3.321205e+02
1.730000e-06	2.849028e-06	5.049899e-09	1.972334e+01	3.318352e+02
1.740000e-06	2.841954e-06	5.034686e-09	1.967436e+01	3.314323e+02
1.750000e-06	2.833953e-06	5.029031e-09	1.961898e+01	3.309290e+02
1.760000e-06	2.824510e-06	5.026641e-09	1.955360e+01	3.303607e+02
1.770000e-06	2.813457e-06	5.021690e-09	1.947709e+01	3.297701e+02
1.780000e-06	2.801674e-06	5.028023e-09	1.939551e+01	3.291934e+02
1.790000e-06	2.789812e-06	5.004090e-09	1.931340e+01	3.286494e+02
1.800000e-06	2.776994e-06	5.006696e-09	1.922466e+01	3.281336e+02
1.810000e-06	2.762455e-06	4.975571e-09	1.912401e+01	3.276214e+02
1.820000e-06	2.746904e-06	4.963862e-09	1.901635e+01	3.270757e+02
1.830000e-06	2.730767e-06	4.970969e-09	1.890464e+01	3.264594e+02
1.840000e-06	2.713412e-06	4.946236e-09	1.878449e+01	3.257454e+02
1.850000e-06	2.694804e-06	4.958333e-09	1.865567e+01	3.249226e+02
1.860000e-06	2.675620e-06	4.940090e-09	1.852287e+01	3.239953e+02
1.870000e-06	2.655603e-06	4.907307e-09	1.838429e+01	3.229786e+02
1.880000e-06	2.634251e-06	4.903504e-09	1.823647e+01	3.218908e+02
1.890000e-06	2.611906e-06	4.884832e-09	1.808178e+01	3.207462e+02
1.900000e-06	2.588635e-06	4.838980e-09	1.792068e+01	3.195516e+02
1.910000e-06	2.564339e-06	4.837911e-09	1.775248e+01	3.183067e+02
1.920000e-06	2.539311e-06	4.850417e-09	1.757922e+01	3.170069e+02
1.930000e-06	2.513529e-06	4.801376e-09	1.740074e+01	3.156472e+02
1.940000e-06	2.486855e-06	4.768309e-09	1.721608e+01	3.142259e+02
1.950000e-06	2.459484e-06	4.797678e-09	1.702659e+01	3.127444e+02
1.960000e-06	2.431172e-06	4.727708e-09	1.683060e+01	3.112062e+02
1.970000e-06	2.401552e-06	4.675420e-09	1.662554e+01	3.096140e+02
1.980000e-06	2.370975e-06	4.703300e-09	1.641386e+01	3.079678e+02
1.990000e-06	2.339726e-06	4.652274e-09	1.619753e+01	3.062645e+02
2.000000e-06	2.307755e-06	4.614524e-09	1.597620e+01	3.044999e+02
2.010000e-06	2.275032e-06	4.640070e-09	1.574966e+01	3.026711e+02
2.020000e-06	2.241476e-06	4.587741e-09	1.551736e+01	3.007791e+02
2.030000e-06	2.207145e-06	4.524194e-09	1.527969e+01	2.988291e+02
2.040000e-06	2.172249e-06	4.527959e-09	1.503811e+01	2.968292e+02
2.050000e-06	2.136722e-06	4.483411e-09	1.479217e+01	2.947868e+02
2.060000e-06	2.100443e-06	4.429502e-09	1.454101e+01	2.927054e+02
2.070000e-06	2.063191e-06	4.422791e-09	1.428312e+01	2.905822e+02
2.080000e-06	2.024837e-06	4.395887e-09	1.401760e+01	2.884090e+02
2.090000e-06	1.985714e-06	4.352303e-09	1.374676e+01	2.861758e+02
2.100000e-06	1.946052e-06	4.320327e-09	1.347219e+01	2.838744e+02
2.110000e-06	1.905769e-06	4.280796e-09	1.319331e+01	2.815031e+02
2.120000e-06	1.864827e-06	4.237302e-09	1.290988e+01	2.790672e+02
2.130000e-06	1.823263e-06	4.193532e-09	1.262214e+01	2.765774e+02
2.140000e-06	1.781103e-06	4.154004e-09	1.233028e+01	2.740454e+02
2.150000e-06	1.738412e-06	4.133831e-09	1.203474e+01	2.714787e+02
2.160000e-06	1.695278e-06	4.092750e-09	1.173612e+01	2.688771e+02
2.170000e-06	1.651712e-06	4.033336e-09	1.143452e+01	2.662324e+02
2.180000e-06	1.607571e-06	3.995681e-09	1.112894e+01	2.635312e+02
2.190000e-06	1.562788e-06	3.964109e-09	1.081892e+01	2.607606e+02
2.200000e-06	1.517374e-06	3.914695e-09	1.050453e+01	2.579133e+02
2.210000e-06	1.471444e-06	3.869653e-09	1.018656e+01	2.549907e+02
2.220000e-06	1.425120e-06	3.833380e-09	9.865864e+00	2.520021e+02
2.230000e-06	1.378276e-06	3.781625e-09	9.541572e+00	2.489600e+02
2.240000e-06	1.330849e-06	3.734720e-09	9.213241e+00	2.458739e+02
2.250000e-06	1.282781e-06	3.686345e-09	8.880474e+00	2.427447e+02
2.260000e-06	1.234120e-06	3.630497e-09	8.543606e+00	2.395627e+02
2.270000e-06	1.185069e-06	3.585842e-09	8.204035e+00	2.363103e+02
2.280000e-06	1.135622e-06	3.543487e-09	7.861720e+00	2.329676e+02
2.290000e-06	1.085771e-06	3.490640e-09	7.516608e+00	2.295204e+02
2.300000e-06	1.035505e-06	3.434527e-09	7.168628e+00	2.259659e+02
2.310000e-06	9.848100e-07	3.378599e-09	6.817673e+00	2.223147e+02
2.320000e-06	9.337899e-07	3.320750e-09	6.464470e+00	2.185871e+02
2.330000e-06	8.825445e-07	3.262374e-09	6.109706e+00	2.148057e+02
2.340000e-06	8.310548e-07	3.201557e-09	5.753252e+00	2.109871e+02
2.350000e-06	7.791384e-07	3.148043e-09	5.393843e+00	2.071353e+02
2.360000e-06	7.267557e-07	3.096349e-09	5.031207e+00	2.032401e+02
2.370000e-06	6.739569e-07	3.038122e-09	4.665690e+00	1.992804e+02
2.380000e-06	6.207009e-07	2.974235e-09	4.297008e+00	1.952318e+02
2.390000e-06	5.670782e-07	2.909963e-09	3.925786e+00	1.910751e+02
2.400000e-06	5.130999e-07	2.847540e-09	3.552104e+00	1.868016e+02
2.410000e-06	4.587428e-07	2.781783e-09	3.175799e+00	1.824144e+02
2.420000e-06	4.041714e-07	2.715356e-09	2.798010e+00	1.779248e+02
2.430000e-06	3.494700e-07	2.648894e-09	2.419321e+00	1.733443e+02
2.440000e-06	2.946376e-07	2.581165e-09	2.039726e+00	1.686782e+02
2.450000e-06	2.397402e-07	2.509437e-09	1.659681e+00	1.639203e+02
2.460000e-06	1.847597e-07	2.434425e-09	1.279060e+00	1.590539e+02
2.470000e-06	1.297069e-07	2.357941e-09	8.979389e-01	1.540566e+02
2.480000e-06	7.465222e-08	2.279374e-09	5.168047e-01	1.489072e+02
2.490000e-06	1.962251e-08	2.197969e-09	1.358433e-01	1.435932e+02
2.500000e-06	-3.540611e-08	2.114678e-09	-2.451105e-01	1.381130e+02
2.510000e-06	-9.044156e-08	2.030575e-09	-6.261116e-01	1.324748e+02
2.520000e-06	-1.454583e-07	1.944255e-09	-1.006983e+00	1.266903e+02
2.530000e-06	-2.004587e-07	1.856241e-09	-1.387742e+00	1.207670e+02
2.540000e-06	-2.554012e-07	1.764441e-09	-1.768099e+00	1.147022e+02
2.550000e-06	-3.102731e-07	1.668430e-09	-2.147968e+00	1.084809e+02
2.560000e-06	-3.650288e-07	1.569044e-09	-2.527032e+00	1.020784e+02
2.570000e-06	-4.196166e-07	1.468140e-09	-2.904935e+00	9.546653e+01
2.580000e-06	-4.740205e-07	1.365845e-09	-3.281563e+00	8.862082e+01
2.590000e-06	-5.281824e-07	1.258510e-09	-3.656518e+00	8.152509e+01
2.600000e-06	-5.820238e-07	1.147970e-09	-4.029252e+00	7.417218e+01
2.610000e-06	-6.355268e-07	1.035431e-09	-4.399645e+00	6.656006e+01
2.620000e-06	-6.886380e-07	9.190407e-10	-4.767324e+00	5.868535e+01
2.630000e-06	-7.412218e-07	7.940598e-10	-5.131353e+00	5.053709e+01
2.640000e-06	-7.932759e-07	6.617830e-10	-5.491715e+00	4.209354e+01
2.650000e-06	-8.449746e-07	5.271133e-10	-5.849616e+00	3.332361e+01
2.660000e-06	-8.964524e-07	3.908942e-10	-6.205988e+00	2.419223e+01
2.670000e-06	-9.476725e-07	2.492529e-10	-6.560576e+00	1.466772e+01
2.680000e-06	-9.985709e-07	9.948081e-11	-6.912937e+00	4.728078e+00
2.690000e-06	-1.049068e-06	-5.695480e-11	-7.262520e+00	-5.636110e+00
2.700000e-06	-1.099132e-06	-2.200130e-10	-7.609106e+00	-1.642263e+01
2.710000e-06	-1.148771e-06	-3.888025e-10	-7.952746e+00	-2.762130e+01
2.720000e-06	-1.197960e-06	-5.645988e-10	-8.293274e+00	-3.921755e+01
2.730000e-06	-1.246642e-06	-7.490413e-10	-8.630291e+00	-5.119317e+01
2.740000e-06	-1.294640e-06	-9.398821e-10	-8.962574e+00	-6.352257e+01
2.750000e-06	-1.341913e-06	-1.133159e-09	-9.289837e+00	-7.616543e+01
2.760000e-06	-1.388544e-06	-1.330210e-09	-9.612657e+00	-8.905826e+01
2.770000e-06	-1.434559e-06	-1.532183e-09	-9.931207e+00	-1.021089e+02
2.780000e-06	-1.480142e-06	-1.735152e-09	-1.024677e+01	-1.151976e+02
2.790000e-06	-1.525431e-06	-1.934454e-09	-1.056030e+01	-1.281852e+02
2.800000e-06	-1.570363e-06	-2.128690e-09	-1.087135e+01	-1.409285e+02
2.810000e-06	-1.614750e-06	-2.317945e-09	-1.117864e+01	-1.532974e+02
2.820000e-06	-1.658547e-06	-2.502236e-09	-1.148184e+01	-1.651893e+02
2.830000e-06	-1.701909e-06	-2.678947e-09	-1.178203e+01	-1.765369e+02
2.840000e-06	-1.744881e-06	-2.843926e-09	-1.207952e+01	-1.873064e+02
2.850000e-06	-1.787353e-06	-2.997786e-09	-1.237355e+01	-1.974887e+02
2.860000e-06	-1.829256e-06	-3.145770e-09	-1.266363e+01	-2.070857e+02
2.870000e-06	-1.870559e-06	-3.286981e-09	-1.294956e+01	-2.160999e+02
2.880000e-06	-1.911184e-06	-3.415650e-09	-1.323081e+01	-2.245280e+02
2.890000e-06	-1.951107e-06	-3.534630e-09	-1.350719e+01	-2.323637e+02
2.900000e-06	-1.990468e-06	-3.648983e-09	-1.377967e+01	-2.396058e+02
2.910000e-06	-2.029337e-06	-3.754730e-09	-1.404876e+01	-2.462687e+02
2.920000e-06	-2.067368e-06	-3.848113e-09	-1.431204e+01	-2.523894e+02
2.930000e-06	-2.104331e-06	-3.932500e-09	-1.456793e+01	-2.580278e+02
2.940000e-06	-2.140366e-06	-4.013831e-09	-1.481739e+01	-2.632586e+02
